Source: I.M. Tso, C.W. Lin & E.C. Yang. 2004. Colourful orb-weaving spiders, Nephila pilipes, through a bees eyes. The Journal of Experimental Biology. 207: 2631-2637.
Unit: Wavelength (micro-m), Reflectance (percentage)
>>>>>Begin Processed Spectral Data<<<
300	12.92
300.1	12.87
300.2	12.82
300.3	12.8
300.4	12.82
300.5	12.89
300.6	12.96
300.7	12.98
300.8	12.97
300.9	12.95
301	12.93
301.1	12.93
301.2	12.97
301.3	13.03
301.4	13.07
301.5	13.05
301.6	13
301.7	12.94
301.8	12.91
301.9	12.9
302	12.89
302.1	12.9
302.2	12.9
302.3	12.91
302.4	12.91
302.5	12.93
302.6	12.96
302.7	13.01
302.8	13.05
302.9	13.07
303	13.02
303.1	12.92
303.2	12.84
303.3	12.84
303.4	12.92
303.5	13.04
303.6	13.12
303.7	13.09
303.8	12.97
303.9	12.84
304	12.78
304.1	12.81
304.2	12.89
304.3	12.97
304.4	13
304.5	12.99
304.6	12.96
304.7	12.95
304.8	12.96
304.9	13
305	13.05
305.1	13.08
305.2	13.06
305.3	13.02
305.4	12.97
305.5	12.94
305.6	12.92
305.7	12.92
305.8	12.91
305.9	12.91
306	12.91
306.1	12.91
306.2	12.91
306.3	12.92
306.4	12.96
306.5	12.99
306.6	13
306.7	12.98
306.8	12.96
306.9	12.93
307	12.93
307.1	12.93
307.2	12.94
307.3	12.93
307.4	12.92
307.5	12.91
307.6	12.91
307.7	12.91
307.8	12.92
307.9	12.96
308	12.99
308.1	13.01
308.2	13.05
308.3	13.09
308.4	13.12
308.5	13.1
308.6	13.05
308.7	12.99
308.8	12.97
308.9	13
309	13.05
309.1	13.1
309.2	13.11
309.3	13.08
309.4	13.03
309.5	12.99
309.6	12.98
309.7	12.96
309.8	12.95
309.9	12.94
310	12.95
310.1	12.98
310.2	13.01
310.3	13.02
310.4	13.03
310.5	13.03
310.6	13.03
310.7	13.04
310.8	13.06
310.9	13.07
311	13.09
311.1	13.09
311.2	13.07
311.3	13.05
311.4	13.05
311.5	13.06
311.6	13.08
311.7	13.09
311.8	13.08
311.9	13.04
312	13
312.1	12.98
312.2	12.99
312.3	13.05
312.4	13.1
312.5	13.13
312.6	13.14
312.7	13.17
312.8	13.19
312.9	13.19
313	13.2
313.1	13.2
313.2	13.21
313.3	13.21
313.4	13.21
313.5	13.22
313.6	13.23
313.7	13.26
313.8	13.3
313.9	13.34
314	13.33
314.1	13.29
314.2	13.24
314.3	13.19
314.4	13.15
314.5	13.11
314.6	13.07
314.7	13.06
314.8	13.17
314.9	13.35
315	13.5
315.1	13.51
315.2	13.42
315.3	13.3
315.4	13.21
315.5	13.18
315.6	13.19
315.7	13.2
315.8	13.21
315.9	13.22
316	13.23
316.1	13.24
316.2	13.24
316.3	13.23
316.4	13.21
316.5	13.2
316.6	13.22
316.7	13.27
316.8	13.34
316.9	13.36
317	13.32
317.1	13.25
317.2	13.19
317.3	13.18
317.4	13.23
317.5	13.29
317.6	13.33
317.7	13.33
317.8	13.31
317.9	13.28
318	13.27
318.1	13.29
318.2	13.33
318.3	13.38
318.4	13.39
318.5	13.39
318.6	13.38
318.7	13.37
318.8	13.37
318.9	13.39
319	13.4
319.1	13.41
319.2	13.4
319.3	13.39
319.4	13.38
319.5	13.38
319.6	13.37
319.7	13.35
319.8	13.35
319.9	13.37
320	13.44
320.1	13.52
320.2	13.56
320.3	13.54
320.4	13.52
320.5	13.49
320.6	13.47
320.7	13.46
320.8	13.45
320.9	13.44
321	13.41
321.1	13.37
321.2	13.33
321.3	13.31
321.4	13.33
321.5	13.4
321.6	13.45
321.7	13.47
321.8	13.47
321.9	13.47
322	13.46
322.1	13.44
322.2	13.4
322.3	13.34
322.4	13.32
322.5	13.32
322.6	13.33
322.7	13.34
322.8	13.35
322.9	13.37
323	13.39
323.1	13.4
323.2	13.4
323.3	13.39
323.4	13.38
323.5	13.38
323.6	13.39
323.7	13.41
323.8	13.43
323.9	13.45
324	13.48
324.1	13.51
324.2	13.53
324.3	13.54
324.4	13.55
324.5	13.56
324.6	13.56
324.7	13.56
324.8	13.53
324.9	13.51
325	13.52
325.1	13.53
325.2	13.55
325.3	13.58
325.4	13.62
325.5	13.73
325.6	13.86
325.7	13.94
325.8	13.93
325.9	13.89
326	13.85
326.1	13.84
326.2	13.82
326.3	13.8
326.4	13.78
326.5	13.78
326.6	13.75
326.7	13.72
326.8	13.71
326.9	13.71
327	13.72
327.1	13.72
327.2	13.74
327.3	13.76
327.4	13.77
327.5	13.78
327.6	13.79
327.7	13.79
327.8	13.79
327.9	13.78
328	13.75
328.1	13.7
328.2	13.66
328.3	13.65
328.4	13.71
328.5	13.81
328.6	13.89
328.7	13.9
328.8	13.86
328.9	13.79
329	13.75
329.1	13.74
329.2	13.74
329.3	13.74
329.4	13.73
329.5	13.76
329.6	13.81
329.7	13.85
329.8	13.86
329.9	13.83
330	13.78
330.1	13.76
330.2	13.78
330.3	13.82
330.4	13.87
330.5	13.89
330.6	13.89
330.7	13.88
330.8	13.87
330.9	13.86
331	13.85
331.1	13.82
331.2	13.81
331.3	13.81
331.4	13.81
331.5	13.81
331.6	13.81
331.7	13.84
331.8	13.9
331.9	13.94
332	13.95
332.1	13.98
332.2	14.02
332.3	14.03
332.4	14.03
332.5	14.01
332.6	13.98
332.7	13.96
332.8	13.92
332.9	13.88
333	13.84
333.1	13.84
333.2	13.87
333.3	13.91
333.4	13.94
333.5	13.94
333.6	13.94
333.7	13.94
333.8	13.94
333.9	13.91
334	13.88
334.1	13.85
334.2	13.84
334.3	13.85
334.4	13.85
334.5	13.87
334.6	13.87
334.7	13.87
334.8	13.87
334.9	13.87
335	13.87
335.1	13.87
335.2	13.87
335.3	13.85
335.4	13.78
335.5	13.71
335.6	13.67
335.7	13.71
335.8	13.82
335.9	13.93
336	13.98
336.1	14
336.2	14.01
336.3	14.02
336.4	14.01
336.5	13.98
336.6	13.95
336.7	13.92
336.8	13.9
336.9	13.87
337	13.85
337.1	13.83
337.2	13.82
337.3	13.81
337.4	13.8
337.5	13.8
337.6	13.79
337.7	13.79
337.8	13.79
337.9	13.81
338	13.86
338.1	13.9
338.2	13.91
338.3	13.89
338.4	13.84
338.5	13.81
338.6	13.83
338.7	13.89
338.8	13.97
338.9	14.02
339	14.04
339.1	14.06
339.2	14.08
339.3	14.08
339.4	14.05
339.5	14
339.6	13.96
339.7	13.94
339.8	13.92
339.9	13.91
340	13.91
340.1	13.97
340.2	14.09
340.3	14.2
340.4	14.23
340.5	14.22
340.6	14.2
340.7	14.18
340.8	14.15
340.9	14.11
341	14.07
341.1	14.05
341.2	14.04
341.3	14.02
341.4	14
341.5	14.01
341.6	14.02
341.7	14.06
341.8	14.08
341.9	14.1
342	14.13
342.1	14.16
342.2	14.17
342.3	14.14
342.4	14.09
342.5	14.04
342.6	14.03
342.7	14.04
342.8	14.06
342.9	14.09
343	14.13
343.1	14.18
343.2	14.23
343.3	14.25
343.4	14.24
343.5	14.2
343.6	14.16
343.7	14.14
343.8	14.12
343.9	14.12
344	14.12
344.1	14.14
344.2	14.19
344.3	14.25
344.4	14.26
344.5	14.2
344.6	14.1
344.7	14.03
344.8	14.02
344.9	14.08
345	14.15
345.1	14.19
345.2	14.18
345.3	14.14
345.4	14.1
345.5	14.09
345.6	14.11
345.7	14.14
345.8	14.18
345.9	14.19
346	14.19
346.1	14.18
346.2	14.18
346.3	14.18
346.4	14.18
346.5	14.19
346.6	14.19
346.7	14.2
346.8	14.21
346.9	14.22
347	14.23
347.1	14.22
347.2	14.21
347.3	14.2
347.4	14.2
347.5	14.2
347.6	14.19
347.7	14.19
347.8	14.21
347.9	14.25
348	14.28
348.1	14.28
348.2	14.26
348.3	14.23
348.4	14.21
348.5	14.21
348.6	14.21
348.7	14.22
348.8	14.22
348.9	14.2
349	14.18
349.1	14.18
349.2	14.2
349.3	14.26
349.4	14.32
349.5	14.36
349.6	14.37
349.7	14.38
349.8	14.39
349.9	14.39
350	14.38
350.1	14.35
350.2	14.33
350.3	14.3
350.4	14.26
350.5	14.22
350.6	14.19
350.7	14.23
350.8	14.3
350.9	14.38
351	14.41
351.1	14.43
351.2	14.45
351.3	14.46
351.4	14.45
351.5	14.42
351.6	14.38
351.7	14.37
351.8	14.38
351.9	14.39
352	14.42
352.1	14.44
352.2	14.5
352.3	14.57
352.4	14.61
352.5	14.61
352.6	14.6
352.7	14.58
352.8	14.56
352.9	14.53
353	14.47
353.1	14.44
353.2	14.44
353.3	14.49
353.4	14.56
353.5	14.6
353.6	14.59
353.7	14.55
353.8	14.52
353.9	14.5
354	14.52
354.1	14.53
354.2	14.55
354.3	14.55
354.4	14.55
354.5	14.55
354.6	14.55
354.7	14.52
354.8	14.48
354.9	14.44
355	14.43
355.1	14.45
355.2	14.48
355.3	14.51
355.4	14.51
355.5	14.47
355.6	14.43
355.7	14.4
355.8	14.43
355.9	14.47
356	14.51
356.1	14.51
356.2	14.45
356.3	14.38
356.4	14.33
356.5	14.34
356.6	14.38
356.7	14.44
356.8	14.47
356.9	14.51
357	14.54
357.1	14.56
357.2	14.55
357.3	14.47
357.4	14.36
357.5	14.29
357.6	14.3
357.7	14.38
357.8	14.46
357.9	14.49
358	14.49
358.1	14.48
358.2	14.47
358.3	14.47
358.4	14.5
358.5	14.54
358.6	14.56
358.7	14.57
358.8	14.57
358.9	14.57
359	14.56
359.1	14.53
359.2	14.51
359.3	14.5
359.4	14.52
359.5	14.56
359.6	14.61
359.7	14.64
359.8	14.62
359.9	14.58
360	14.54
360.1	14.53
360.2	14.55
360.3	14.58
360.4	14.61
360.5	14.62
360.6	14.66
360.7	14.69
360.8	14.71
360.9	14.71
361	14.69
361.1	14.68
361.2	14.69
361.3	14.74
361.4	14.8
361.5	14.84
361.6	14.82
361.7	14.75
361.8	14.68
361.9	14.65
362	14.64
362.1	14.64
362.2	14.64
362.3	14.66
362.4	14.75
362.5	14.86
362.6	14.93
362.7	14.93
362.8	14.92
362.9	14.92
363	14.92
363.1	14.94
363.2	14.99
363.3	15.03
363.4	15.05
363.5	15.08
363.6	15.1
363.7	15.11
363.8	15.09
363.9	15.05
364	15.02
364.1	15.02
364.2	15.08
364.3	15.18
364.4	15.25
364.5	15.27
364.6	15.29
364.7	15.31
364.8	15.31
364.9	15.28
365	15.23
365.1	15.17
365.2	15.16
365.3	15.19
365.4	15.23
365.5	15.26
365.6	15.28
365.7	15.33
365.8	15.37
365.9	15.38
366	15.34
366.1	15.26
366.2	15.2
366.3	15.21
366.4	15.31
366.5	15.44
366.6	15.52
366.7	15.52
366.8	15.52
366.9	15.51
367	15.5
367.1	15.46
367.2	15.4
367.3	15.35
367.4	15.35
367.5	15.37
367.6	15.39
367.7	15.4
367.8	15.4
367.9	15.38
368	15.36
368.1	15.36
368.2	15.42
368.3	15.5
368.4	15.56
368.5	15.56
368.6	15.54
368.7	15.52
368.8	15.51
368.9	15.49
369	15.45
369.1	15.43
369.2	15.42
369.3	15.45
369.4	15.47
369.5	15.49
369.6	15.49
369.7	15.49
369.8	15.49
369.9	15.49
370	15.52
370.1	15.58
370.2	15.63
370.3	15.64
370.4	15.63
370.5	15.61
370.6	15.59
370.7	15.54
370.8	15.45
370.9	15.37
371	15.36
371.1	15.43
371.2	15.54
371.3	15.62
371.4	15.6
371.5	15.53
371.6	15.45
371.7	15.41
371.8	15.46
371.9	15.55
372	15.64
372.1	15.65
372.2	15.55
372.3	15.41
372.4	15.33
372.5	15.34
372.6	15.4
372.7	15.46
372.8	15.49
372.9	15.48
373	15.46
373.1	15.43
373.2	15.42
373.3	15.38
373.4	15.34
373.5	15.32
373.6	15.35
373.7	15.44
373.8	15.52
373.9	15.54
374	15.49
374.1	15.42
374.2	15.37
374.3	15.36
374.4	15.39
374.5	15.43
374.6	15.46
374.7	15.47
374.8	15.48
374.9	15.48
375	15.5
375.1	15.53
375.2	15.57
375.3	15.6
375.4	15.64
375.5	15.68
375.6	15.72
375.7	15.75
375.8	15.8
375.9	15.89
376	15.96
376.1	15.96
376.2	15.91
376.3	15.85
376.4	15.82
376.5	15.87
376.6	15.99
376.7	16.11
376.8	16.15
376.9	16.16
377	16.17
377.1	16.17
377.2	16.17
377.3	16.17
377.4	16.17
377.5	16.18
377.6	16.19
377.7	16.22
377.8	16.25
377.9	16.27
378	16.33
378.1	16.39
378.2	16.43
378.3	16.41
378.4	16.35
378.5	16.29
378.6	16.27
378.7	16.31
378.8	16.38
378.9	16.44
379	16.45
379.1	16.41
379.2	16.36
379.3	16.33
379.4	16.31
379.5	16.29
379.6	16.26
379.7	16.25
379.8	16.2
379.9	16.14
380	16.1
380.1	16.1
380.2	16.13
380.3	16.15
380.4	16.14
380.5	16.08
380.6	15.97
380.7	15.89
380.8	15.87
380.9	15.93
381	16.02
381.1	16.07
381.2	16.06
381.3	16.02
381.4	15.97
381.5	15.95
381.6	15.93
381.7	15.91
381.8	15.88
381.9	15.85
382	15.8
382.1	15.74
382.2	15.71
382.3	15.72
382.4	15.73
382.5	15.75
382.6	15.78
382.7	15.83
382.8	15.9
382.9	15.95
383	15.93
383.1	15.89
383.2	15.84
383.3	15.82
383.4	15.82
383.5	15.82
383.6	15.82
383.7	15.82
383.8	15.82
383.9	15.84
384	15.85
384.1	15.87
384.2	15.93
384.3	15.99
384.4	16.03
384.5	16.08
384.6	16.13
384.7	16.16
384.8	16.18
384.9	16.21
385	16.24
385.1	16.26
385.2	16.3
385.3	16.35
385.4	16.4
385.5	16.42
385.6	16.48
385.7	16.56
385.8	16.61
385.9	16.62
386	16.63
386.1	16.64
386.2	16.64
386.3	16.63
386.4	16.62
386.5	16.62
386.6	16.62
386.7	16.63
386.8	16.64
386.9	16.66
387	16.68
387.1	16.73
387.2	16.78
387.3	16.81
387.4	16.84
387.5	16.88
387.6	16.92
387.7	16.99
387.8	17.12
387.9	17.24
388	17.29
388.1	17.26
388.2	17.21
388.3	17.17
388.4	17.16
388.5	17.18
388.6	17.22
388.7	17.28
388.8	17.37
388.9	17.51
389	17.64
389.1	17.7
389.2	17.71
389.3	17.71
389.4	17.71
389.5	17.74
389.6	17.81
389.7	17.86
389.8	17.89
389.9	17.87
390	17.85
390.1	17.83
390.2	17.84
390.3	17.89
390.4	17.95
390.5	17.98
390.6	17.95
390.7	17.88
390.8	17.8
390.9	17.75
391	17.71
391.1	17.68
391.2	17.66
391.3	17.66
391.4	17.66
391.5	17.66
391.6	17.65
391.7	17.62
391.8	17.58
391.9	17.54
392	17.52
392.1	17.49
392.2	17.45
392.3	17.43
392.4	17.47
392.5	17.55
392.6	17.64
392.7	17.68
392.8	17.67
392.9	17.65
393	17.63
393.1	17.63
393.2	17.63
393.3	17.64
393.4	17.67
393.5	17.77
393.6	17.94
393.7	18.08
393.8	18.09
393.9	17.96
394	17.79
394.1	17.66
394.2	17.66
394.3	17.71
394.4	17.76
394.5	17.79
394.6	17.85
394.7	17.94
394.8	18.02
394.9	18.03
395	18.01
395.1	17.99
395.2	18
395.3	18.09
395.4	18.27
395.5	18.45
395.6	18.55
395.7	18.61
395.8	18.66
395.9	18.7
396	18.78
396.1	18.91
396.2	19.04
396.3	19.12
396.4	19.19
396.5	19.28
396.6	19.36
396.7	19.42
396.8	19.48
396.9	19.56
397	19.64
397.1	19.78
397.2	19.98
397.3	20.17
397.4	20.27
397.5	20.36
397.6	20.45
397.7	20.53
397.8	20.62
397.9	20.77
398	20.93
398.1	21.07
398.2	21.18
398.3	21.3
398.4	21.42
398.5	21.56
398.6	21.73
398.7	21.92
398.8	22.12
398.9	22.37
399	22.68
399.1	22.93
399.2	23.01
399.3	22.98
399.4	22.91
399.5	22.87
399.6	22.93
399.7	23.09
399.8	23.28
399.9	23.43
400	23.54
400.1	23.66
400.2	23.75
400.3	23.78
400.4	23.78
400.5	23.77
400.6	23.78
400.7	23.85
400.8	23.96
400.9	24.1
401	24.22
401.1	24.34
401.2	24.47
401.3	24.57
401.4	24.64
401.5	24.71
401.6	24.77
401.7	24.8
401.8	24.82
401.9	24.84
402	24.87
402.1	24.93
402.2	25.02
402.3	25.12
402.4	25.18
402.5	25.2
402.6	25.19
402.7	25.18
402.8	25.19
402.9	25.27
403	25.39
403.1	25.49
403.2	25.55
403.3	25.63
403.4	25.7
403.5	25.74
403.6	25.73
403.7	25.71
403.8	25.67
403.9	25.63
404	25.56
404.1	25.49
404.2	25.45
404.3	25.45
404.4	25.49
404.5	25.53
404.6	25.54
404.7	25.53
404.8	25.52
404.9	25.52
405	25.49
405.1	25.4
405.2	25.32
405.3	25.3
405.4	25.33
405.5	25.4
405.6	25.49
405.7	25.6
405.8	25.83
405.9	26.1
406	26.27
406.1	26.33
406.2	26.37
406.3	26.4
406.4	26.41
406.5	26.44
406.6	26.47
406.7	26.51
406.8	26.56
406.9	26.64
407	26.71
407.1	26.76
407.2	26.79
407.3	26.8
407.4	26.82
407.5	26.86
407.6	26.98
407.7	27.12
407.8	27.21
407.9	27.29
408	27.39
408.1	27.45
408.2	27.44
408.3	27.3
408.4	27.13
408.5	27.02
408.6	27.11
408.7	27.41
408.8	27.72
408.9	27.85
409	27.9
409.1	27.93
409.2	27.95
409.3	27.96
409.4	27.99
409.5	28.05
409.6	28.1
409.7	28.18
409.8	28.31
409.9	28.43
410	28.48
410.1	28.49
410.2	28.48
410.3	28.46
410.4	28.41
410.5	28.33
410.6	28.25
410.7	28.23
410.8	28.32
410.9	28.49
411	28.67
411.1	28.86
411.2	29.15
411.3	29.43
411.4	29.53
411.5	29.36
411.6	29.03
411.7	28.77
411.8	28.76
411.9	28.93
412	29.16
412.1	29.33
412.2	29.44
412.3	29.57
412.4	29.67
412.5	29.69
412.6	29.59
412.7	29.45
412.8	29.35
412.9	29.4
413	29.59
413.1	29.81
413.2	29.93
413.3	29.99
413.4	30.04
413.5	30.07
413.6	30.04
413.7	29.9
413.8	29.72
413.9	29.62
414	29.73
414.1	30.01
414.2	30.29
414.3	30.45
414.4	30.54
414.5	30.61
414.6	30.65
414.7	30.62
414.8	30.53
414.9	30.43
415	30.37
415.1	30.38
415.2	30.4
415.3	30.43
415.4	30.45
415.5	30.51
415.6	30.58
415.7	30.6
415.8	30.53
415.9	30.39
416	30.27
416.1	30.27
416.2	30.4
416.3	30.56
416.4	30.66
416.5	30.61
416.6	30.45
416.7	30.29
416.8	30.22
416.9	30.23
417	30.27
417.1	30.29
417.2	30.31
417.3	30.32
417.4	30.34
417.5	30.37
417.6	30.47
417.7	30.6
417.8	30.72
417.9	30.76
418	30.76
418.1	30.76
418.2	30.74
418.3	30.73
418.4	30.71
418.5	30.68
418.6	30.63
418.7	30.52
418.8	30.4
418.9	30.33
419	30.36
419.1	30.49
419.2	30.65
419.3	30.8
419.4	30.98
419.5	31.18
419.6	31.31
419.7	31.32
419.8	31.26
419.9	31.18
420	31.08
420.1	30.9
420.2	30.64
420.3	30.43
420.4	30.4
420.5	30.56
420.6	30.78
420.7	30.91
420.8	30.92
420.9	30.9
421	30.88
421.1	30.86
421.2	30.86
421.3	30.86
421.4	30.86
421.5	30.88
421.6	30.95
421.7	31.04
421.8	31.11
421.9	31.19
422	31.28
422.1	31.35
422.2	31.31
422.3	31.08
422.4	30.81
422.5	30.67
422.6	30.66
422.7	30.67
422.8	30.68
422.9	30.7
423	30.75
423.1	30.79
423.2	30.82
423.3	30.78
423.4	30.7
423.5	30.62
423.6	30.59
423.7	30.69
423.8	30.84
423.9	30.98
424	31.04
424.1	31.09
424.2	31.13
424.3	31.14
424.4	31.08
424.5	30.95
424.6	30.84
424.7	30.81
424.8	30.8
424.9	30.8
425	30.82
425.1	30.95
425.2	31.24
425.3	31.52
425.4	31.63
425.5	31.62
425.6	31.58
425.7	31.55
425.8	31.56
425.9	31.58
426	31.59
426.1	31.57
426.2	31.42
426.3	31.18
426.4	30.97
426.5	30.86
426.6	30.77
426.7	30.7
426.8	30.67
426.9	30.76
427	30.94
427.1	31.08
427.2	31.07
427.3	30.94
427.4	30.76
427.5	30.6
427.6	30.47
427.7	30.32
427.8	30.19
427.9	30.1
428	29.94
428.1	29.76
428.2	29.64
428.3	29.66
428.4	29.72
428.5	29.78
428.6	29.8
428.7	29.79
428.8	29.77
428.9	29.77
429	29.79
429.1	29.84
429.2	29.9
429.3	29.94
429.4	29.95
429.5	29.94
429.6	29.93
429.7	29.95
429.8	30.01
429.9	30.09
430	30.14
430.1	30.15
430.2	30.16
430.3	30.16
430.4	30.17
430.5	30.17
430.6	30.17
430.7	30.17
430.8	30.22
430.9	30.29
431	30.37
431.1	30.44
431.2	30.49
431.3	30.55
431.4	30.63
431.5	30.77
431.6	31
431.7	31.26
431.8	31.47
431.9	31.73
432	32.03
432.1	32.26
432.2	32.32
432.3	32.26
432.4	32.18
432.5	32.17
432.6	32.38
432.7	32.81
432.8	33.2
432.9	33.31
433	33.29
433.1	33.26
433.2	33.25
433.3	33.27
433.4	33.32
433.5	33.39
433.6	33.48
433.7	33.69
433.8	33.95
433.9	34.14
434	34.15
434.1	34.06
434.2	33.94
434.3	33.89
434.4	33.93
434.5	34.02
434.6	34.14
434.7	34.25
434.8	34.4
434.9	34.59
435	34.78
435.1	35.03
435.2	35.34
435.3	35.57
435.4	35.61
435.5	35.54
435.6	35.43
435.7	35.34
435.8	35.27
435.9	35.19
436	35.13
436.1	35.12
436.2	35.28
436.3	35.51
436.4	35.66
436.5	35.61
436.6	35.37
436.7	35.12
436.8	35.02
436.9	35.12
437	35.3
437.1	35.44
437.2	35.44
437.3	35.35
437.4	35.23
437.5	35.19
437.6	35.26
437.7	35.42
437.8	35.56
437.9	35.62
438	35.65
438.1	35.68
438.2	35.69
438.3	35.67
438.4	35.64
438.5	35.61
438.6	35.63
438.7	35.78
438.8	35.99
438.9	36.11
439	36.04
439.1	35.83
439.2	35.61
439.3	35.54
439.4	35.66
439.5	35.86
439.6	36.08
439.7	36.22
439.8	36.35
439.9	36.48
440	36.6
440.1	36.81
440.2	37.08
440.3	37.28
440.4	37.29
440.5	37.17
440.6	37.03
440.7	36.96
440.8	37.08
440.9	37.35
441	37.59
441.1	37.6
441.2	37.32
441.3	36.95
441.4	36.72
441.5	36.83
441.6	37.21
441.7	37.63
441.8	37.9
441.9	38.08
442	38.25
442.1	38.43
442.2	38.66
442.3	39
442.4	39.3
442.5	39.39
442.6	39.23
442.7	38.96
442.8	38.75
442.9	38.71
443	38.7
443.1	38.69
443.2	38.7
443.3	38.85
443.4	39.1
443.5	39.3
443.6	39.33
443.7	39.28
443.8	39.19
443.9	39.1
444	38.94
444.1	38.69
444.2	38.48
444.3	38.46
444.4	38.62
444.5	38.83
444.6	38.97
444.7	38.92
444.8	38.7
444.9	38.5
445	38.49
445.1	38.84
445.2	39.33
445.3	39.67
445.4	39.56
445.5	39.09
445.6	38.59
445.7	38.44
445.8	38.81
445.9	39.4
446	39.85
446.1	39.84
446.2	39.63
446.3	39.39
446.4	39.29
446.5	39.39
446.6	39.56
446.7	39.7
446.8	39.74
446.9	39.74
447	39.75
447.1	39.78
447.2	39.93
447.3	40.2
447.4	40.43
447.5	40.46
447.6	40.28
447.7	40.04
447.8	39.91
447.9	40.15
448	40.81
448.1	41.44
448.2	41.6
448.3	41.43
448.4	41.19
448.5	41.03
448.6	41.04
448.7	41.15
448.8	41.27
448.9	41.31
449	41.3
449.1	41.29
449.2	41.27
449.3	41.3
449.4	41.43
449.5	41.57
449.6	41.63
449.7	41.66
449.8	41.68
449.9	41.69
450	41.67
450.1	41.53
450.2	41.36
450.3	41.29
450.4	41.3
450.5	41.33
450.6	41.36
450.7	41.37
450.8	41.34
450.9	41.31
451	41.31
451.1	41.45
451.2	41.72
451.3	41.95
451.4	41.98
451.5	41.79
451.6	41.54
451.7	41.38
451.8	41.38
451.9	41.42
452	41.47
452.1	41.49
452.2	41.49
452.3	41.47
452.4	41.44
452.5	41.32
452.6	41.07
452.7	40.83
452.8	40.76
452.9	40.91
453	41.16
453.1	41.34
453.2	41.36
453.3	41.32
453.4	41.27
453.5	41.22
453.6	41.09
453.7	40.9
453.8	40.76
453.9	40.76
454	40.92
454.1	41.14
454.2	41.31
454.3	41.41
454.4	41.5
454.5	41.57
454.6	41.64
454.7	41.72
454.8	41.8
454.9	41.89
455	42.06
455.1	42.32
455.2	42.56
455.3	42.66
455.4	42.71
455.5	42.74
455.6	42.76
455.7	42.75
455.8	42.73
455.9	42.71
456	42.72
456.1	42.88
456.2	43.11
456.3	43.27
456.4	43.3
456.5	43.29
456.6	43.28
456.7	43.24
456.8	42.84
456.9	42.24
457	41.79
457.1	41.78
457.2	41.98
457.3	42.27
457.4	42.54
457.5	42.84
457.6	43.16
457.7	43.46
457.8	43.7
457.9	43.95
458	44.15
458.1	44.23
458.2	43.96
458.3	43.41
458.4	42.95
458.5	42.96
458.6	43.54
458.7	44.25
458.8	44.64
458.9	44.59
459	44.43
459.1	44.25
459.2	44.11
459.3	43.93
459.4	43.75
459.5	43.66
459.6	43.81
459.7	44.21
459.8	44.6
459.9	44.77
460	44.81
460.1	44.84
460.2	44.85
460.3	44.96
460.4	45.24
460.5	45.52
460.6	45.64
460.7	45.61
460.8	45.56
460.9	45.52
461	45.53
461.1	45.59
461.2	45.67
461.3	45.71
461.4	45.71
461.5	45.69
461.6	45.68
461.7	45.69
461.8	45.7
461.9	45.72
462	45.75
462.1	45.73
462.2	45.68
462.3	45.65
462.4	45.75
462.5	46.1
462.6	46.49
462.7	46.69
462.8	46.64
462.9	46.5
463	46.39
463.1	46.46
463.2	46.88
463.3	47.38
463.4	47.66
463.5	47.58
463.6	47.38
463.7	47.17
463.8	47.07
463.9	47
464	46.94
464.1	46.91
464.2	46.91
464.3	46.89
464.4	46.87
464.5	46.86
464.6	46.84
464.7	46.82
464.8	46.83
464.9	46.96
465	47.24
465.1	47.52
465.2	47.65
465.3	47.69
465.4	47.72
465.5	47.78
465.6	47.92
465.7	48.2
465.8	48.47
465.9	48.56
466	48.36
466.1	48.07
466.2	47.86
466.3	47.91
466.4	48.14
466.5	48.39
466.6	48.49
466.7	48.48
466.8	48.45
466.9	48.42
467	48.37
467.1	48.22
467.2	48.08
467.3	48.02
467.4	48.33
467.5	48.9
467.6	49.35
467.7	49.47
467.8	49.51
467.9	49.55
468	49.59
468.1	49.71
468.2	49.89
468.3	50.03
468.4	50.01
468.5	49.71
468.6	49.37
468.7	49.19
468.8	49.25
468.9	49.41
469	49.61
469.1	49.81
469.2	50.2
469.3	50.63
469.4	50.88
469.5	50.94
469.6	50.97
469.7	50.99
469.8	50.99
469.9	51.01
470	51.02
470.1	51.02
470.2	51.19
470.3	51.62
470.4	52.01
470.5	52.14
470.6	52.17
470.7	52.2
470.8	52.22
470.9	52.27
471	52.37
471.1	52.46
471.2	52.48
471.3	52.44
471.4	52.41
471.5	52.4
471.6	52.6
471.7	53.16
471.8	53.73
471.9	53.92
472	53.8
472.1	53.61
472.2	53.48
472.3	53.6
472.4	54.1
472.5	54.66
472.6	54.96
472.7	55.08
472.8	55.18
472.9	55.27
473	55.39
473.1	55.57
473.2	55.77
473.3	55.96
473.4	56.21
473.5	56.49
473.6	56.67
473.7	56.64
473.8	56.41
473.9	56.14
474	56.01
474.1	56.07
474.2	56.22
474.3	56.39
474.4	56.58
474.5	56.88
474.6	57.2
474.7	57.47
474.8	57.67
474.9	57.86
475	58.04
475.1	58.23
475.2	58.54
475.3	58.85
475.4	59.06
475.5	59.16
475.6	59.24
475.7	59.31
475.8	59.41
475.9	59.69
476	60.01
476.1	60.18
476.2	60.07
476.3	59.81
476.4	59.57
476.5	59.55
476.6	59.81
476.7	60.16
476.8	60.4
476.9	60.51
477	60.61
477.1	60.73
477.2	60.86
477.3	61.12
477.4	61.43
477.5	61.64
477.6	61.72
477.7	61.77
477.8	61.81
477.9	61.89
478	62.05
478.1	62.26
478.2	62.47
478.3	62.69
478.4	63
478.5	63.31
478.6	63.51
478.7	63.67
478.8	63.82
478.9	63.98
479	64.21
479.1	64.56
479.2	64.84
479.3	64.92
479.4	64.82
479.5	64.68
479.6	64.59
479.7	64.71
479.8	65.09
479.9	65.48
480	65.66
480.1	65.65
480.2	65.59
480.3	65.57
480.4	65.67
480.5	65.89
480.6	66.13
480.7	66.29
480.8	66.42
480.9	66.53
481	66.63
481.1	66.77
481.2	67.03
481.3	67.3
481.4	67.43
481.5	67.5
481.6	67.6
481.7	67.71
481.8	67.85
481.9	68.07
482	68.27
482.1	68.35
482.2	68.32
482.3	68.27
482.4	68.23
482.5	68.25
482.6	68.35
482.7	68.47
482.8	68.5
482.9	68.29
483	67.93
483.1	67.63
483.2	67.56
483.3	67.56
483.4	67.58
483.5	67.59
483.6	67.55
483.7	67.48
483.8	67.37
483.9	67.19
484	66.75
484.1	66.3
484.2	66.12
484.3	66.28
484.4	66.59
484.5	66.82
484.6	66.83
484.7	66.72
484.8	66.58
484.9	66.5
485	66.46
485.1	66.43
485.2	66.42
485.3	66.43
485.4	66.51
485.5	66.6
485.6	66.66
485.7	66.69
485.8	66.75
485.9	66.8
486	66.82
486.1	66.85
486.2	66.88
486.3	66.9
486.4	66.86
486.5	66.8
486.6	66.77
486.7	66.81
486.8	66.97
486.9	67.18
487	67.37
487.1	67.52
487.2	67.68
487.3	67.86
487.4	68.13
487.5	68.65
487.6	69.26
487.7	69.73
487.8	70.05
487.9	70.33
488	70.58
488.1	70.81
488.2	71.04
488.3	71.28
488.4	71.5
488.5	71.76
488.6	72.07
488.7	72.3
488.8	72.35
488.9	72.34
489	72.33
489.1	72.34
489.2	72.56
489.3	73.03
489.4	73.46
489.5	73.58
489.6	73.57
489.7	73.53
489.8	73.51
489.9	73.54
490	73.63
490.1	73.76
490.2	73.91
490.3	74.14
490.4	74.38
490.5	74.5
490.6	74.42
490.7	74.23
490.8	74.07
490.9	74.06
491	74.26
491.1	74.52
491.2	74.72
491.3	74.81
491.4	74.93
491.5	75.03
491.6	75.12
491.7	75.21
491.8	75.31
491.9	75.39
492	75.42
492.1	75.43
492.2	75.44
492.3	75.48
492.4	75.56
492.5	75.65
492.6	75.7
492.7	75.69
492.8	75.65
492.9	75.63
493	75.69
493.1	75.9
493.2	76.19
493.3	76.45
493.4	76.64
493.5	76.81
493.6	76.97
493.7	77.13
493.8	77.35
493.9	77.57
494	77.71
494.1	77.76
494.2	77.82
494.3	77.88
494.4	77.96
494.5	78.25
494.6	78.6
494.7	78.79
494.8	78.72
494.9	78.55
495	78.4
495.1	78.39
495.2	78.62
495.3	78.94
495.4	79.13
495.5	79.12
495.6	79.05
495.7	78.96
495.8	78.91
495.9	78.82
496	78.72
496.1	78.65
496.2	78.63
496.3	78.61
496.4	78.59
496.5	78.59
496.6	78.65
496.7	78.73
496.8	78.79
496.9	78.77
497	78.74
497.1	78.72
497.2	78.73
497.3	78.79
497.4	78.85
497.5	78.9
497.6	78.97
497.7	79.09
497.8	79.18
497.9	79.17
498	78.91
498.1	78.55
498.2	78.32
498.3	78.29
498.4	78.32
498.5	78.35
498.6	78.34
498.7	78.29
498.8	78.24
498.9	78.19
499	78.1
499.1	77.95
499.2	77.81
499.3	77.75
499.4	77.66
499.5	77.56
499.6	77.5
499.7	77.53
499.8	77.62
499.9	77.72
500	77.76
500.1	77.75
500.2	77.72
500.3	77.71
500.4	77.75
500.5	77.8
500.6	77.85
500.7	77.86
500.8	77.85
500.9	77.82
501	77.77
501.1	77.69
501.2	77.56
501.3	77.45
501.4	77.39
501.5	77.36
501.6	77.34
501.7	77.31
501.8	77.21
501.9	77.08
502	76.98
502.1	77
502.2	77.15
502.3	77.37
502.4	77.55
502.5	77.72
502.6	77.91
502.7	78.06
502.8	78.11
502.9	78.11
503	78.08
503.1	78.07
503.2	78.23
503.3	78.53
503.4	78.79
503.5	78.85
503.6	78.81
503.7	78.77
503.8	78.77
503.9	79
504	79.41
504.1	79.76
504.2	79.83
504.3	79.81
504.4	79.78
504.5	79.77
504.6	79.93
504.7	80.21
504.8	80.42
504.9	80.42
505	80.28
505.1	80.12
505.2	80.06
505.3	80.12
505.4	80.23
505.5	80.35
505.6	80.49
505.7	80.7
505.8	80.91
505.9	81.01
506	81.02
506.1	81
506.2	81.01
506.3	81.1
506.4	81.3
506.5	81.51
506.6	81.65
506.7	81.77
506.8	81.91
506.9	82
507	82
507.1	81.94
507.2	81.87
507.3	81.84
507.4	81.95
507.5	82.15
507.6	82.3
507.7	82.31
507.8	82.29
507.9	82.27
508	82.26
508.1	82.29
508.2	82.35
508.3	82.39
508.4	82.44
508.5	82.55
508.6	82.68
508.7	82.77
508.8	82.87
508.9	83
509	83.13
509.1	83.23
509.2	83.34
509.3	83.45
509.4	83.58
509.5	83.81
509.6	84.08
509.7	84.26
509.8	84.29
509.9	84.28
510	84.26
510.1	84.25
510.2	84.28
510.3	84.32
510.4	84.35
510.5	84.41
510.6	84.53
510.7	84.64
510.8	84.69
510.9	84.72
511	84.74
511.1	84.75
511.2	84.74
511.3	84.72
511.4	84.69
511.5	84.65
511.6	84.58
511.7	84.49
511.8	84.44
511.9	84.51
512	84.67
512.1	84.82
512.2	84.86
512.3	84.86
512.4	84.85
512.5	84.85
512.6	84.97
512.7	85.21
512.8	85.43
512.9	85.45
513	85.3
513.1	85.09
513.2	84.95
513.3	84.92
513.4	84.87
513.5	84.83
513.6	84.82
513.7	84.76
513.8	84.68
513.9	84.63
514	84.57
514.1	84.47
514.2	84.35
514.3	84.21
514.4	83.99
514.5	83.77
514.6	83.67
514.7	83.74
514.8	83.87
514.9	83.97
515	83.92
515.1	83.65
515.2	83.34
515.3	83.17
515.4	83.12
515.5	83.08
515.6	83.06
515.7	83.03
515.8	82.98
515.9	82.93
516	82.88
516.1	82.84
516.2	82.8
516.3	82.78
516.4	82.79
516.5	82.81
516.6	82.82
516.7	82.83
516.8	82.84
516.9	82.86
517	82.87
517.1	82.87
517.2	82.87
517.3	82.87
517.4	82.89
517.5	83.02
517.6	83.24
517.7	83.42
517.8	83.53
517.9	83.67
518	83.8
518.1	83.9
518.2	84.04
518.3	84.2
518.4	84.36
518.5	84.58
518.6	84.95
518.7	85.33
518.8	85.62
518.9	85.97
519	86.35
519.1	86.65
519.2	86.88
519.3	87.18
519.4	87.45
519.5	87.61
519.6	87.84
519.7	88.09
519.8	88.26
519.9	88.34
520	88.44
520.1	88.56
520.2	88.75
520.3	89.21
520.4	89.72
520.5	90.02
520.6	90.05
520.7	90.01
520.8	89.97
520.9	90.05
521	90.33
521.1	90.67
521.2	90.9
521.3	91.02
521.4	91.14
521.5	91.26
521.6	91.38
521.7	91.59
521.8	91.8
521.9	91.93
522	91.98
522.1	91.99
522.2	92.02
522.3	92.14
522.4	92.41
522.5	92.73
522.6	92.97
522.7	93.21
522.8	93.47
522.9	93.63
523	93.65
523.1	93.66
523.2	93.67
523.3	93.66
523.4	93.68
523.5	93.71
523.6	93.74
523.7	93.78
523.8	93.87
523.9	93.95
524	93.94
524.1	93.78
524.2	93.55
524.3	93.39
524.4	93.36
524.5	93.37
524.6	93.38
524.7	93.41
524.8	93.46
524.9	93.52
525	93.58
525.1	93.61
525.2	93.64
525.3	93.67
525.4	93.7
525.5	93.83
525.6	93.98
525.7	94.04
525.8	93.91
525.9	93.67
526	93.47
526.1	93.45
526.2	93.55
526.3	93.69
526.4	93.8
526.5	93.88
526.6	93.96
526.7	94.02
526.8	94.07
526.9	94.16
527	94.25
527.1	94.31
527.2	94.42
527.3	94.59
527.4	94.7
527.5	94.7
527.6	94.65
527.7	94.61
527.8	94.64
527.9	94.82
528	95.1
528.1	95.39
528.2	95.63
528.3	95.86
528.4	96.09
528.5	96.33
528.6	96.61
528.7	96.9
528.8	97.17
528.9	97.44
529	97.72
529.1	98.01
529.2	98.26
529.3	98.55
529.4	98.82
529.5	98.97
529.6	99.01
529.7	99.01
529.8	99.01
529.9	99.02
530	99.02
530.1	99.02
530.2	99.02
530.3	99.03
530.4	99.04
530.5	99.05
530.6	99.03
530.7	98.92
530.8	98.78
530.9	98.71
531	98.66
531.1	98.6
531.2	98.53
531.3	98.47
531.4	98.38
531.5	98.3
531.6	98.24
531.7	98.23
531.8	98.26
531.9	98.27
532	98.24
532.1	98.15
532.2	98.07
532.3	98.05
532.4	98.16
532.5	98.34
532.6	98.48
532.7	98.49
532.8	98.45
532.9	98.41
533	98.44
533.1	98.54
533.2	98.65
533.3	98.71
533.4	98.69
533.5	98.64
533.6	98.59
533.7	98.56
533.8	98.54
533.9	98.54
534	98.54
534.1	98.56
534.2	98.62
534.3	98.69
534.4	98.76
534.5	98.98
534.6	99.24
534.7	99.39
534.8	99.46
534.9	99.54
535	99.59
535.1	99.55
535.2	99.38
535.3	99.19
535.4	99.09
535.5	99.12
535.6	99.21
535.7	99.29
535.8	99.35
535.9	99.5
536	99.64
536.1	99.69
536.2	99.69
536.3	99.7
536.4	99.69
536.5	99.65
536.6	99.57
536.7	99.51
536.8	99.5
536.9	99.5
537	99.5
537.1	99.5
537.2	99.44
537.3	99.26
537.4	99.05
537.5	98.85
537.6	98.64
537.7	98.42
537.8	98.28
537.9	98.17
538	98.06
538.1	97.96
538.2	97.87
538.3	97.66
538.4	97.44
538.5	97.34
538.6	97.3
538.7	97.26
538.8	97.22
538.9	97.17
539	97.02
539.1	96.85
539.2	96.75
539.3	96.68
539.4	96.61
539.5	96.55
539.6	96.49
539.7	96.42
539.8	96.36
539.9	96.32
540	96.23
540.1	96.13
540.2	96.08
540.3	96.11
540.4	96.18
540.5	96.25
540.6	96.24
540.7	96.06
540.8	95.83
540.9	95.71
541	95.76
541.1	95.88
541.2	95.98
541.3	95.98
541.4	95.89
541.5	95.78
541.6	95.73
541.7	95.7
541.8	95.66
541.9	95.64
542	95.74
542.1	96.08
542.2	96.44
542.3	96.56
542.4	96.46
542.5	96.28
542.6	96.16
542.7	96.23
542.8	96.5
542.9	96.77
543	96.83
543.1	96.67
543.2	96.44
543.3	96.28
543.4	96.23
543.5	96.19
543.6	96.17
543.7	96.2
543.8	96.32
543.9	96.48
544	96.57
544.1	96.6
544.2	96.62
544.3	96.63
544.4	96.63
544.5	96.59
544.6	96.55
544.7	96.51
544.8	96.49
544.9	96.46
545	96.44
545.1	96.41
545.2	96.37
545.3	96.31
545.4	96.25
545.5	96.16
545.6	96.05
545.7	95.96
545.8	95.92
545.9	95.88
546	95.85
546.1	95.83
546.2	95.82
546.3	95.81
546.4	95.8
546.5	95.75
546.6	95.66
546.7	95.58
546.8	95.57
546.9	95.63
547	95.71
547.1	95.79
547.2	95.93
547.3	96.13
547.4	96.27
547.5	96.21
547.6	95.85
547.7	95.45
547.8	95.28
547.9	95.42
548	95.66
548.1	95.83
548.2	95.83
548.3	95.75
548.4	95.65
548.5	95.58
548.6	95.46
548.7	95.32
548.8	95.24
548.9	95.29
549	95.43
549.1	95.58
549.2	95.6
549.3	95.5
549.4	95.35
549.5	95.25
549.6	95.2
549.7	95.15
549.8	95.13
549.9	95.16
550	95.22
550.1	95.28
550.2	95.31
550.3	95.2
550.4	95
550.5	94.83
550.6	94.8
550.7	94.85
550.8	94.91
550.9	94.93
551	94.87
551.1	94.78
551.2	94.7
551.3	94.63
551.4	94.56
551.5	94.5
551.6	94.47
551.7	94.38
551.8	94.26
551.9	94.21
552	94.31
552.1	94.5
552.2	94.66
552.3	94.66
552.4	94.51
552.5	94.32
552.6	94.2
552.7	94.14
552.8	94.09
552.9	94.06
553	94.08
553.1	94.17
553.2	94.27
553.3	94.29
553.4	94.19
553.5	94.06
553.6	93.97
553.7	93.92
553.8	93.86
553.9	93.81
554	93.8
554.1	93.8
554.2	93.81
554.3	93.82
554.4	93.66
554.5	93.3
554.6	92.98
554.7	92.89
554.8	92.83
554.9	92.77
555	92.72
555.1	92.64
555.2	92.5
555.3	92.38
555.4	92.35
555.5	92.36
555.6	92.36
555.7	92.31
555.8	92.09
555.9	91.79
556	91.57
556.1	91.5
556.2	91.46
556.3	91.41
556.4	91.36
556.5	91.13
556.6	90.8
556.7	90.51
556.8	90.26
556.9	90
557	89.79
557.1	89.69
557.2	89.6
557.3	89.53
557.4	89.46
557.5	89.34
557.6	89.19
557.7	89.05
557.8	88.96
557.9	88.89
558	88.81
558.1	88.73
558.2	88.62
558.3	88.48
558.4	88.37
558.5	88.27
558.6	88.11
558.7	87.95
558.8	87.89
558.9	87.95
559	88.06
559.1	88.13
559.2	88.14
559.3	88.15
559.4	88.14
559.5	88.09
559.6	88
559.7	87.88
559.8	87.77
559.9	87.62
560	87.43
560.1	87.3
560.2	87.27
560.3	87.3
560.4	87.34
560.5	87.35
560.6	87.35
560.7	87.34
560.8	87.31
560.9	87.16
561	86.84
561.1	86.57
561.2	86.54
561.3	86.85
561.4	87.24
561.5	87.45
561.6	87.41
561.7	87.3
561.8	87.19
561.9	87.11
562	86.99
562.1	86.85
562.2	86.79
562.3	86.8
562.4	86.85
562.5	86.87
562.6	86.77
562.7	86.47
562.8	86.13
562.9	85.93
563	85.77
563.1	85.61
563.2	85.51
563.3	85.48
563.4	85.48
563.5	85.48
563.6	85.42
563.7	85.19
563.8	84.92
563.9	84.77
564	84.77
564.1	84.83
564.2	84.87
564.3	84.86
564.4	84.78
564.5	84.69
564.6	84.62
564.7	84.41
564.8	84.1
564.9	83.87
565	83.8
565.1	83.77
565.2	83.77
565.3	83.76
565.4	83.72
565.5	83.64
565.6	83.56
565.7	83.4
565.8	83.18
565.9	82.98
566	82.88
566.1	82.81
566.2	82.75
566.3	82.69
566.4	82.61
566.5	82.5
566.6	82.41
566.7	82.34
566.8	82.21
566.9	82.06
567	81.93
567.1	81.69
567.2	81.4
567.3	81.21
567.4	81.14
567.5	81.12
567.6	81.1
567.7	81.06
567.8	80.92
567.9	80.76
568	80.64
568.1	80.51
568.2	80.31
568.3	80.15
568.4	80.08
568.5	80.01
568.6	79.93
568.7	79.87
568.8	79.66
568.9	79.34
569	79.07
569.1	78.89
569.2	78.7
569.3	78.53
569.4	78.39
569.5	78.25
569.6	78.12
569.7	78.05
569.8	78.02
569.9	78
570	77.99
570.1	77.99
570.2	77.98
570.3	77.97
570.4	77.97
570.5	77.95
570.6	77.92
570.7	77.89
570.8	77.88
570.9	77.85
571	77.84
571.1	77.85
571.2	77.9
571.3	77.96
571.4	77.97
571.5	77.92
571.6	77.84
571.7	77.73
571.8	77.62
571.9	77.45
572	77.28
572.1	77.2
572.2	77.25
572.3	77.35
572.4	77.44
572.5	77.46
572.6	77.47
572.7	77.46
572.8	77.44
572.9	77.43
573	77.4
573.1	77.38
573.2	77.36
573.3	77.35
573.4	77.33
573.5	77.3
573.6	77.25
573.7	77.2
573.8	77.13
573.9	76.88
574	76.52
574.1	76.25
574.2	76.2
574.3	76.2
574.4	76.2
574.5	76.2
574.6	76.19
574.7	76.16
574.8	76.14
574.9	76.13
575	76.1
575.1	76.05
575.2	75.97
575.3	75.8
575.4	75.63
575.5	75.55
575.6	75.57
575.7	75.64
575.8	75.68
575.9	75.56
576	75.21
576.1	74.86
576.2	74.68
576.3	74.61
576.4	74.55
576.5	74.53
576.6	74.55
576.7	74.64
576.8	74.71
576.9	74.67
577	74.44
577.1	74.17
577.2	74.05
577.3	74.12
577.4	74.25
577.5	74.34
577.6	74.27
577.7	74.06
577.8	73.84
577.9	73.74
578	73.72
578.1	73.71
578.2	73.72
578.3	73.78
578.4	73.9
578.5	74.01
578.6	74.02
578.7	74
578.8	73.96
578.9	73.92
579	73.79
579.1	73.59
579.2	73.45
579.3	73.44
579.4	73.46
579.5	73.5
579.6	73.54
579.7	73.74
579.8	73.99
579.9	74.13
580	74.05
580.1	73.88
580.2	73.73
580.3	73.71
580.4	73.8
580.5	73.89
580.6	73.94
580.7	73.9
580.8	73.83
580.9	73.78
581	73.81
581.1	73.9
581.2	73.99
581.3	74.04
581.4	74.08
581.5	74.12
581.6	74.13
581.7	74.11
581.8	74.05
581.9	73.99
582	73.9
582.1	73.74
582.2	73.58
582.3	73.5
582.4	73.49
582.5	73.5
582.6	73.52
582.7	73.52
582.8	73.53
582.9	73.53
583	73.51
583.1	73.41
583.2	73.3
583.3	73.23
583.4	73.21
583.5	73.19
583.6	73.17
583.7	73.12
583.8	72.89
583.9	72.62
584	72.46
584.1	72.36
584.2	72.27
584.3	72.21
584.4	72.19
584.5	72.19
584.6	72.16
584.7	72.07
584.8	71.83
584.9	71.55
585	71.34
585.1	71.23
585.2	71.13
585.3	71.05
585.4	70.97
585.5	70.88
585.6	70.77
585.7	70.64
585.8	70.38
585.9	70.04
586	69.75
586.1	69.61
586.2	69.49
586.3	69.36
586.4	69.15
586.5	68.76
586.6	68.29
586.7	67.87
586.8	67.5
586.9	67.11
587	66.8
587.1	66.61
587.2	66.47
587.3	66.33
587.4	66.14
587.5	65.82
587.6	65.44
587.7	65.1
587.8	64.83
587.9	64.57
588	64.35
588.1	64.2
588.2	64.07
588.3	63.95
588.4	63.83
588.5	63.68
588.6	63.51
588.7	63.34
588.8	63.17
588.9	62.96
589	62.75
589.1	62.57
589.2	62.41
589.3	62.25
589.4	62.09
589.5	61.88
589.6	61.62
589.7	61.39
589.8	61.25
589.9	61.11
590	61
590.1	60.94
590.2	60.93
590.3	60.95
590.4	60.98
590.5	61.07
590.6	61.28
590.7	61.5
590.8	61.66
590.9	61.82
591	61.96
591.1	62.03
591.2	62.03
591.3	62.03
591.4	62.04
591.5	62.12
591.6	62.33
591.7	62.55
591.8	62.63
591.9	62.57
592	62.47
592.1	62.4
592.2	62.39
592.3	62.41
592.4	62.42
592.5	62.4
592.6	62.29
592.7	62.18
592.8	62.14
592.9	62.2
593	62.3
593.1	62.39
593.2	62.44
593.3	62.5
593.4	62.56
593.5	62.56
593.6	62.51
593.7	62.45
593.8	62.4
593.9	62.36
594	62.31
594.1	62.28
594.2	62.27
594.3	62.31
594.4	62.35
594.5	62.35
594.6	62.3
594.7	62.24
594.8	62.2
594.9	62.22
595	62.3
595.1	62.37
595.2	62.37
595.3	62.39
595.4	62.4
595.5	62.4
595.6	62.41
595.7	62.45
595.8	62.48
595.9	62.47
596	62.41
596.1	62.36
596.2	62.35
596.3	62.45
596.4	62.59
596.5	62.66
596.6	62.71
596.7	62.79
596.8	62.86
596.9	62.86
597	62.85
597.1	62.85
597.2	62.89
597.3	63.08
597.4	63.35
597.5	63.52
597.6	63.42
597.7	63.14
597.8	62.89
597.9	62.86
598	63.01
598.1	63.18
598.2	63.26
598.3	63.26
598.4	63.27
598.5	63.27
598.6	63.25
598.7	63.18
598.8	63.11
598.9	63.09
599	63.06
599.1	63.01
599.2	62.97
599.3	62.92
599.4	62.82
599.5	62.75
599.6	62.74
599.7	62.79
599.8	62.87
599.9	62.92
600	63
600.1	63.1
600.2	63.16
600.3	63.1
600.4	62.95
600.5	62.82
600.6	62.81
600.7	62.89
600.8	62.98
600.9	63.04
601	63.1
601.1	63.21
601.2	63.29
601.3	63.25
601.4	63.1
601.5	62.96
601.6	62.94
601.7	63.01
601.8	63.12
601.9	63.17
602	63.21
602.1	63.28
602.2	63.33
602.3	63.35
602.4	63.39
602.5	63.42
602.6	63.43
602.7	63.33
602.8	63.19
602.9	63.11
603	63.14
603.1	63.2
603.2	63.24
603.3	63.25
603.4	63.19
603.5	63.11
603.6	63.08
603.7	63.08
603.8	63.07
603.9	63.05
604	63
604.1	62.95
604.2	62.92
604.3	62.92
604.4	63.06
604.5	63.22
604.6	63.29
604.7	63.25
604.8	63.16
604.9	63.07
605	62.97
605.1	62.81
605.2	62.66
605.3	62.62
605.4	62.63
605.5	62.65
605.6	62.64
605.7	62.55
605.8	62.42
605.9	62.29
606	62.21
606.1	62.14
606.2	62.08
606.3	62.04
606.4	62.04
606.5	62.05
606.6	62.05
606.7	62.01
606.8	61.92
606.9	61.84
607	61.8
607.1	61.78
607.2	61.74
607.3	61.68
607.4	61.52
607.5	61.31
607.6	61.16
607.7	61.11
607.8	61.07
607.9	61.04
608	61
608.1	60.9
608.2	60.77
608.3	60.69
608.4	60.67
608.5	60.67
608.6	60.67
608.7	60.65
608.8	60.58
608.9	60.49
609	60.42
609.1	60.35
609.2	60.28
609.3	60.19
609.4	60.07
609.5	59.95
609.6	59.84
609.7	59.77
609.8	59.67
609.9	59.59
610	59.54
610.1	59.56
610.2	59.58
610.3	59.6
610.4	59.49
610.5	59.27
610.6	59.09
610.7	59.06
610.8	59.08
610.9	59.1
611	59.11
611.1	59.05
611.2	58.96
611.3	58.89
611.4	58.86
611.5	58.8
611.6	58.75
611.7	58.72
611.8	58.63
611.9	58.54
612	58.5
612.1	58.47
612.2	58.43
612.3	58.4
612.4	58.33
612.5	58.19
612.6	58.07
612.7	58.03
612.8	58.03
612.9	58.03
613	58.02
613.1	57.96
613.2	57.87
613.3	57.78
613.4	57.71
613.5	57.61
613.6	57.53
613.7	57.5
613.8	57.5
613.9	57.5
614	57.5
614.1	57.37
614.2	57.11
614.3	56.9
614.4	56.82
614.5	56.73
614.6	56.65
614.7	56.62
614.8	56.64
614.9	56.68
615	56.7
615.1	56.62
615.2	56.47
615.3	56.35
615.4	56.36
615.5	56.42
615.6	56.49
615.7	56.52
615.8	56.52
615.9	56.5
616	56.48
616.1	56.4
616.2	56.25
616.3	56.12
616.4	56.1
616.5	56.13
616.6	56.16
616.7	56.13
616.8	56.02
616.9	55.87
617	55.78
617.1	55.8
617.2	55.88
617.3	55.96
617.4	55.99
617.5	56.05
617.6	56.1
617.7	56.11
617.8	56.02
617.9	55.9
618	55.82
618.1	55.84
618.2	55.93
618.3	56
618.4	56.01
618.5	55.95
618.6	55.87
618.7	55.83
618.8	55.89
618.9	56.01
619	56.1
619.1	56.11
619.2	56.11
619.3	56.09
619.4	56.07
619.5	56
619.6	55.93
619.7	55.87
619.8	55.82
619.9	55.77
620	55.75
620.1	55.76
620.2	55.8
620.3	55.84
620.4	55.84
620.5	55.68
620.6	55.49
620.7	55.42
620.8	55.47
620.9	55.55
621	55.61
621.1	55.56
621.2	55.39
621.3	55.22
621.4	55.15
621.5	55.12
621.6	55.11
621.7	55.09
621.8	55.06
621.9	55.01
622	54.98
622.1	54.96
622.2	54.94
622.3	54.9
622.4	54.84
622.5	54.66
622.6	54.44
622.7	54.3
622.8	54.25
622.9	54.21
623	54.16
623.1	54.08
623.2	53.98
623.3	53.89
623.4	53.83
623.5	53.76
623.6	53.69
623.7	53.65
623.8	53.63
623.9	53.61
624	53.58
624.1	53.55
624.2	53.49
624.3	53.44
624.4	53.42
624.5	53.44
624.6	53.47
624.7	53.46
624.8	53.37
624.9	53.19
625	53.06
625.1	53.04
625.2	53.02
625.3	53
625.4	52.96
625.5	52.89
625.6	52.79
625.7	52.71
625.8	52.63
625.9	52.52
626	52.44
626.1	52.42
626.2	52.43
626.3	52.45
626.4	52.43
626.5	52.28
626.6	52.09
626.7	51.97
626.8	51.96
626.9	51.95
627	51.93
627.1	51.9
627.2	51.85
627.3	51.8
627.4	51.76
627.5	51.7
627.6	51.64
627.7	51.61
627.8	51.62
627.9	51.65
628	51.66
628.1	51.63
628.2	51.51
628.3	51.38
628.4	51.3
628.5	51.22
628.6	51.15
628.7	51.12
628.8	51.19
628.9	51.33
629	51.44
629.1	51.41
629.2	51.25
629.3	51.08
629.4	51
629.5	50.99
629.6	50.99
629.7	51
629.8	51.02
629.9	51.05
630	51.07
630.1	51.08
630.2	51.04
630.3	51
630.4	50.98
630.5	50.97
630.6	50.95
630.7	50.93
630.8	50.94
630.9	50.98
631	50.99
631.1	50.94
631.2	50.81
631.3	50.69
631.4	50.65
631.5	50.7
631.6	50.77
631.7	50.82
631.8	50.83
631.9	50.84
632	50.84
632.1	50.8
632.2	50.67
632.3	50.54
632.4	50.5
632.5	50.55
632.6	50.63
632.7	50.68
632.8	50.73
632.9	50.81
633	50.86
633.1	50.88
633.2	50.92
633.3	50.96
633.4	50.91
633.5	50.74
633.6	50.54
633.7	50.43
633.8	50.48
633.9	50.61
634	50.7
634.1	50.67
634.2	50.54
634.3	50.41
634.4	50.38
634.5	50.41
634.6	50.46
634.7	50.47
634.8	50.45
634.9	50.42
635	50.4
635.1	50.4
635.2	50.44
635.3	50.47
635.4	50.5
635.5	50.51
635.6	50.5
635.7	50.47
635.8	50.37
635.9	50.22
636	50.14
636.1	50.17
636.2	50.3
636.3	50.41
636.4	50.42
636.5	50.27
636.6	50.09
636.7	50
636.8	50.06
636.9	50.19
637	50.27
637.1	50.19
637.2	50
637.3	49.83
637.4	49.8
637.5	49.89
637.6	50
637.7	50.04
637.8	49.99
637.9	49.91
638	49.84
638.1	49.77
638.2	49.68
638.3	49.6
638.4	49.58
638.5	49.64
638.6	49.71
638.7	49.74
638.8	49.74
638.9	49.72
639	49.68
639.1	49.58
639.2	49.43
639.3	49.3
639.4	49.26
639.5	49.24
639.6	49.22
639.7	49.19
639.8	49.11
639.9	48.99
640	48.91
640.1	48.92
640.2	48.98
640.3	49.02
640.4	48.98
640.5	48.81
640.6	48.64
640.7	48.57
640.8	48.59
640.9	48.63
641	48.62
641.1	48.48
641.2	48.24
641.3	48.07
641.4	48.06
641.5	48.09
641.6	48.12
641.7	48.13
641.8	48.12
641.9	48.09
642	48.07
642.1	48.08
642.2	48.08
642.3	48.06
642.4	48.04
642.5	47.99
642.6	47.93
642.7	47.88
642.8	47.8
642.9	47.71
643	47.63
643.1	47.48
643.2	47.29
643.3	47.18
643.4	47.21
643.5	47.33
643.6	47.42
643.7	47.4
643.8	47.21
643.9	46.99
644	46.87
644.1	46.83
644.2	46.78
644.3	46.74
644.4	46.61
644.5	46.39
644.6	46.18
644.7	46.06
644.8	45.98
644.9	45.92
645	45.87
645.1	45.74
645.2	45.58
645.3	45.45
645.4	45.36
645.5	45.25
645.6	45.14
645.7	45.09
645.8	45.03
645.9	44.95
646	44.85
646.1	44.61
646.2	44.32
646.3	44.11
646.4	43.99
646.5	43.87
646.6	43.79
646.7	43.72
646.8	43.62
646.9	43.52
647	43.45
647.1	43.4
647.2	43.35
647.3	43.3
647.4	43.24
647.5	43.17
647.6	43.12
647.7	43.08
647.8	43.05
647.9	43.02
648	42.97
648.1	42.91
648.2	42.85
648.3	42.83
648.4	42.86
648.5	42.92
648.6	42.94
648.7	42.86
648.8	42.67
648.9	42.51
649	42.47
649.1	42.52
649.2	42.6
649.3	42.65
649.4	42.68
649.5	42.71
649.6	42.72
649.7	42.72
649.8	42.72
649.9	42.73
650	42.73
650.1	42.75
650.2	42.77
650.3	42.76
650.4	42.71
650.5	42.64
650.6	42.6
650.7	42.58
650.8	42.58
650.9	42.58
651	42.58
651.1	42.62
651.2	42.67
651.3	42.72
651.4	42.86
651.5	43.01
651.6	43.07
651.7	43.02
651.8	42.9
651.9	42.81
652	42.78
652.1	42.78
652.2	42.78
652.3	42.75
652.4	42.64
652.5	42.53
652.6	42.48
652.7	42.41
652.8	42.32
652.9	42.26
653	42.22
653.1	42.15
653.2	42.08
653.3	42.05
653.4	41.98
653.5	41.9
653.6	41.83
653.7	41.71
653.8	41.56
653.9	41.45
654	41.38
654.1	41.31
654.2	41.26
654.3	41.17
654.4	41.02
654.5	40.87
654.6	40.81
654.7	40.8
654.8	40.8
654.9	40.8
655	40.72
655.1	40.59
655.2	40.47
655.3	40.38
655.4	40.29
655.5	40.23
655.6	40.19
655.7	40.16
655.8	40.13
655.9	40.1
656	40.02
656.1	39.94
656.2	39.91
656.3	39.94
656.4	39.99
656.5	40.04
656.6	40.01
656.7	39.9
656.8	39.81
656.9	39.82
657	39.94
657.1	40.09
657.2	40.17
657.3	40.12
657.4	40.02
657.5	39.95
657.6	39.98
657.7	40.06
657.8	40.16
657.9	40.24
658	40.34
658.1	40.46
658.2	40.57
658.3	40.69
658.4	40.8
658.5	40.9
658.6	41.01
658.7	41.18
658.8	41.31
658.9	41.37
659	41.43
659.1	41.47
659.2	41.51
659.3	41.57
659.4	41.65
659.5	41.69
659.6	41.69
659.7	41.68
659.8	41.69
659.9	41.72
660	41.78
660.1	41.83
660.2	41.84
660.3	41.85
660.4	41.86
660.5	41.87
660.6	41.87
660.7	41.89
660.8	41.91
660.9	41.96
661	42.05
661.1	42.12
661.2	42.1
661.3	41.99
661.4	41.88
661.5	41.83
661.6	41.81
661.7	41.77
661.8	41.75
661.9	41.72
662	41.66
662.1	41.62
662.2	41.63
662.3	41.66
662.4	41.67
662.5	41.63
662.6	41.54
662.7	41.44
662.8	41.39
662.9	41.37
663	41.34
663.1	41.31
663.2	41.3
663.3	41.3
663.4	41.29
663.5	41.23
663.6	41.06
663.7	40.91
663.8	40.87
663.9	40.97
664	41.09
664.1	41.14
664.2	41.09
664.3	40.98
664.4	40.89
664.5	40.84
664.6	40.77
664.7	40.71
664.8	40.7
664.9	40.69
665	40.68
665.1	40.65
665.2	40.53
665.3	40.37
665.4	40.28
665.5	40.32
665.6	40.41
665.7	40.5
665.8	40.54
665.9	40.52
666	40.48
666.1	40.44
666.2	40.33
666.3	40.22
666.4	40.17
666.5	40.22
666.6	40.32
666.7	40.38
666.8	40.34
666.9	40.22
667	40.11
667.1	40.08
667.2	40.05
667.3	40.02
667.4	40
667.5	39.98
667.6	39.95
667.7	39.94
667.8	39.9
667.9	39.82
668	39.76
668.1	39.77
668.2	39.81
668.3	39.83
668.4	39.81
668.5	39.71
668.6	39.61
668.7	39.54
668.8	39.49
668.9	39.45
669	39.42
669.1	39.4
669.2	39.38
669.3	39.35
669.4	39.33
669.5	39.34
669.6	39.35
669.7	39.32
669.8	39.26
669.9	39.18
670	39.12
670.1	39.05
670.2	38.98
670.3	38.94
670.4	38.89
670.5	38.82
670.6	38.78
670.7	38.85
670.8	39.07
670.9	39.3
671	39.38
671.1	39.24
671.2	39.01
671.3	38.84
671.4	38.69
671.5	38.54
671.6	38.45
671.7	38.49
671.8	38.63
671.9	38.77
672	38.79
672.1	38.68
672.2	38.55
672.3	38.47
672.4	38.41
672.5	38.32
672.6	38.26
672.7	38.3
672.8	38.38
672.9	38.44
673	38.42
673.1	38.31
673.2	38.19
673.3	38.12
673.4	38.09
673.5	38.06
673.6	38.04
673.7	38.02
673.8	38
673.9	37.98
674	37.97
674.1	37.96
674.2	37.95
674.3	37.93
674.4	37.85
674.5	37.75
674.6	37.73
674.7	37.74
674.8	37.75
674.9	37.76
675	37.78
675.1	37.79
675.2	37.79
675.3	37.79
675.4	37.75
675.5	37.72
675.6	37.68
675.7	37.61
675.8	37.53
675.9	37.47
676	37.39
676.1	37.31
676.2	37.26
676.3	37.28
676.4	37.31
676.5	37.33
676.6	37.34
676.7	37.32
676.8	37.31
676.9	37.3
677	37.29
677.1	37.28
677.2	37.28
677.3	37.25
677.4	37.18
677.5	37.14
677.6	37.08
677.7	36.97
677.8	36.88
677.9	36.87
678	36.9
678.1	36.93
678.2	36.93
678.3	36.87
678.4	36.8
678.5	36.75
678.6	36.77
678.7	36.83
678.8	36.87
678.9	36.87
679	36.85
679.1	36.82
679.2	36.77
679.3	36.7
679.4	36.65
679.5	36.64
679.6	36.68
679.7	36.73
679.8	36.74
679.9	36.63
680	36.46
680.1	36.35
680.2	36.36
680.3	36.38
680.4	36.4
680.5	36.4
680.6	36.38
680.7	36.35
680.8	36.34
680.9	36.33
681	36.32
681.1	36.31
681.2	36.23
681.3	36.08
681.4	35.96
681.5	35.94
681.6	35.93
681.7	35.92
681.8	35.89
681.9	35.83
682	35.78
682.1	35.77
682.2	35.94
682.3	36.2
682.4	36.32
682.5	36.24
682.6	36.06
682.7	35.9
682.8	35.82
682.9	35.74
683	35.68
683.1	35.64
683.2	35.61
683.3	35.6
683.4	35.58
683.5	35.52
683.6	35.43
683.7	35.34
683.8	35.25
683.9	35.14
684	35.06
684.1	35.03
684.2	35.01
684.3	34.98
684.4	34.93
684.5	34.82
684.6	34.7
684.7	34.58
684.8	34.4
684.9	34.19
685	34.02
685.1	33.95
685.2	33.93
685.3	33.9
685.4	33.79
685.5	33.6
685.6	33.39
685.7	33.26
685.8	33.16
685.9	33.08
686	32.99
686.1	32.9
686.2	32.79
686.3	32.71
686.4	32.65
686.5	32.59
686.6	32.54
686.7	32.47
686.8	32.34
686.9	32.21
687	32.12
687.1	32.03
687.2	31.94
687.3	31.87
687.4	31.76
687.5	31.64
687.6	31.53
687.7	31.46
687.8	31.4
687.9	31.37
688	31.37
688.1	31.37
688.2	31.38
688.3	31.41
688.4	31.45
688.5	31.49
688.6	31.52
688.7	31.58
688.8	31.66
688.9	31.71
689	31.75
689.1	31.79
689.2	31.83
689.3	31.89
689.4	31.96
689.5	32.04
689.6	32.09
689.7	32.17
689.8	32.25
689.9	32.29
690	32.29
690.1	32.28
690.2	32.27
690.3	32.25
690.4	32.21
690.5	32.18
690.6	32.24
690.7	32.4
690.8	32.55
690.9	32.57
691	32.48
691.1	32.37
691.2	32.33
691.3	32.32
691.4	32.32
691.5	32.31
691.6	32.3
691.7	32.28
691.8	32.27
691.9	32.28
692	32.32
692.1	32.35
692.2	32.37
692.3	32.42
692.4	32.46
692.5	32.47
692.6	32.42
692.7	32.36
692.8	32.32
692.9	32.27
693	32.2
693.1	32.16
693.2	32.16
693.3	32.18
693.4	32.2
693.5	32.19
693.6	32.17
693.7	32.16
693.8	32.18
693.9	32.29
694	32.42
694.1	32.49
694.2	32.48
694.3	32.44
694.4	32.43
694.5	32.52
694.6	32.7
694.7	32.86
694.8	32.92
694.9	32.94
695	32.96
695.1	33.01
695.2	33.17
695.3	33.36
695.4	33.49
695.5	33.53
695.6	33.56
695.7	33.59
695.8	33.69
695.9	33.85
696	34
696.1	34.07
696.2	34.13
696.3	34.2
696.4	34.29
696.5	34.48
696.6	34.67
696.7	34.75
696.8	34.74
696.9	34.73
697	34.72
697.1	34.79
697.2	34.94
697.3	35.04
697.4	35.04
697.5	35.02
697.6	35.01
697.7	35.05
697.8	35.15
697.9	35.25
698	35.3
698.1	35.28
698.2	35.25
698.3	35.23
698.4	35.21
698.5	35.18
698.6	35.16
698.7	35.19
698.8	35.26
698.9	35.32
699	35.33
699.1	35.31
699.2	35.29
699.3	35.27
699.4	35.22
699.5	35.17
699.6	35.13
699.7	35.1
699.8	35.07
699.9	35.06
700	35.07
>>>>>End Processed Spectral Data<<<<<