Source: I.M. Tso, C.W. Lin & E.C. Yang. 2004. Colourful orb-weaving spiders, Nephila pilipes, through a bees eyes. The Journal of Experimental Biology. 207: 2631-2637.
Unit: Wavelength (micro-m), Reflectance (percentage)
>>>>>Begin Processed Spectral Data<<<
300	7.1
300.1	7.14
300.2	7.19
300.3	7.22
300.4	7.24
300.5	7.26
300.6	7.28
300.7	7.28
300.8	7.26
300.9	7.24
301	7.21
301.1	7.2
301.2	7.18
301.3	7.15
301.4	7.13
301.5	7.13
301.6	7.15
301.7	7.17
301.8	7.18
301.9	7.21
302	7.26
302.1	7.3
302.2	7.3
302.3	7.24
302.4	7.18
302.5	7.13
302.6	7.11
302.7	7.1
302.8	7.08
302.9	7.08
303	7.12
303.1	7.18
303.2	7.23
303.3	7.24
303.4	7.2
303.5	7.15
303.6	7.12
303.7	7.11
303.8	7.11
303.9	7.12
304	7.12
304.1	7.14
304.2	7.16
304.3	7.18
304.4	7.18
304.5	7.15
304.6	7.1
304.7	7.07
304.8	7.07
304.9	7.11
305	7.15
305.1	7.17
305.2	7.15
305.3	7.11
305.4	7.07
305.5	7.05
305.6	7.06
305.7	7.08
305.8	7.09
305.9	7.09
306	7.1
306.1	7.1
306.2	7.1
306.3	7.11
306.4	7.13
306.5	7.16
306.6	7.17
306.7	7.2
306.8	7.24
306.9	7.27
307	7.27
307.1	7.25
307.2	7.22
307.3	7.2
307.4	7.19
307.5	7.19
307.6	7.19
307.7	7.18
307.8	7.18
307.9	7.17
308	7.16
308.1	7.16
308.2	7.16
308.3	7.15
308.4	7.15
308.5	7.15
308.6	7.14
308.7	7.13
308.8	7.13
308.9	7.14
309	7.14
309.1	7.15
309.2	7.15
309.3	7.15
309.4	7.15
309.5	7.15
309.6	7.15
309.7	7.15
309.8	7.14
309.9	7.14
310	7.12
310.1	7.09
310.2	7.06
310.3	7.05
310.4	7.04
310.5	7.04
310.6	7.04
310.7	7.07
310.8	7.13
310.9	7.19
311	7.22
311.1	7.22
311.2	7.19
311.3	7.17
311.4	7.16
311.5	7.17
311.6	7.19
311.7	7.2
311.8	7.2
311.9	7.2
312	7.19
312.1	7.19
312.2	7.18
312.3	7.15
312.4	7.12
312.5	7.11
312.6	7.12
312.7	7.12
312.8	7.12
312.9	7.12
313	7.11
313.1	7.1
313.2	7.09
313.3	7.09
313.4	7.08
313.5	7.07
313.6	7.07
313.7	7.07
313.8	7.08
313.9	7.09
314	7.09
314.1	7.09
314.2	7.09
314.3	7.1
314.4	7.1
314.5	7.12
314.6	7.13
314.7	7.13
314.8	7.11
314.9	7.08
315	7.05
315.1	7.04
315.2	7.05
315.3	7.07
315.4	7.08
315.5	7.09
315.6	7.1
315.7	7.1
315.8	7.1
315.9	7.09
316	7.07
316.1	7.05
316.2	7.05
316.3	7.08
316.4	7.12
316.5	7.15
316.6	7.15
316.7	7.13
316.8	7.1
316.9	7.09
317	7.08
317.1	7.07
317.2	7.07
317.3	7.07
317.4	7.07
317.5	7.08
317.6	7.09
317.7	7.09
317.8	7.09
317.9	7.09
318	7.09
318.1	7.12
318.2	7.16
318.3	7.19
318.4	7.19
318.5	7.15
318.6	7.1
318.7	7.06
318.8	7.07
318.9	7.11
319	7.15
319.1	7.17
319.2	7.18
319.3	7.18
319.4	7.18
319.5	7.18
319.6	7.15
319.7	7.1
319.8	7.07
319.9	7.07
320	7.08
320.1	7.09
320.2	7.1
320.3	7.12
320.4	7.16
320.5	7.19
320.6	7.19
320.7	7.16
320.8	7.11
320.9	7.08
321	7.08
321.1	7.11
321.2	7.15
321.3	7.17
321.4	7.16
321.5	7.14
321.6	7.11
321.7	7.1
321.8	7.1
321.9	7.1
322	7.1
322.1	7.1
322.2	7.1
322.3	7.1
322.4	7.1
322.5	7.1
322.6	7.09
322.7	7.09
322.8	7.09
322.9	7.11
323	7.13
323.1	7.14
323.2	7.15
323.3	7.15
323.4	7.15
323.5	7.15
323.6	7.13
323.7	7.08
323.8	7.04
323.9	7.03
324	7.05
324.1	7.08
324.2	7.11
324.3	7.12
324.4	7.12
324.5	7.13
324.6	7.13
324.7	7.13
324.8	7.13
324.9	7.13
325	7.13
325.1	7.11
325.2	7.08
325.3	7.06
325.4	7.06
325.5	7.07
325.6	7.09
325.7	7.09
325.8	7.1
325.9	7.1
326	7.1
326.1	7.1
326.2	7.09
326.3	7.08
326.4	7.07
326.5	7.08
326.6	7.1
326.7	7.13
326.8	7.14
326.9	7.14
327	7.13
327.1	7.11
327.2	7.11
327.3	7.12
327.4	7.14
327.5	7.16
327.6	7.15
327.7	7.14
327.8	7.12
327.9	7.1
328	7.09
328.1	7.06
328.2	7.04
328.3	7.03
328.4	7.03
328.5	7.03
328.6	7.04
328.7	7.03
328.8	7.02
328.9	7
329	6.99
329.1	7
329.2	7.02
329.3	7.05
329.4	7.06
329.5	7.07
329.6	7.08
329.7	7.08
329.8	7.09
329.9	7.1
330	7.12
330.1	7.13
330.2	7.13
330.3	7.13
330.4	7.12
330.5	7.11
330.6	7.09
330.7	7.06
330.8	7.04
330.9	7.04
331	7.06
331.1	7.08
331.2	7.1
331.3	7.08
331.4	7.05
331.5	7.01
331.6	6.99
331.7	6.99
331.8	6.98
331.9	6.97
332	6.97
332.1	6.97
332.2	6.98
332.3	6.98
332.4	7
332.5	7.04
332.6	7.08
332.7	7.09
332.8	7.07
332.9	7.03
333	7.01
333.1	7.01
333.2	7.04
333.3	7.08
333.4	7.1
333.5	7.09
333.6	7.06
333.7	7.03
333.8	7.02
333.9	7.02
334	7.03
334.1	7.04
334.2	7.05
334.3	7.05
334.4	7.06
334.5	7.06
334.6	7.06
334.7	7.07
334.8	7.08
334.9	7.09
335	7.1
335.1	7.13
335.2	7.15
335.3	7.15
335.4	7.15
335.5	7.14
335.6	7.13
335.7	7.11
335.8	7.07
335.9	7.03
336	7.02
336.1	7.04
336.2	7.08
336.3	7.12
336.4	7.11
336.5	7.07
336.6	7.03
336.7	7.01
336.8	7.02
336.9	7.05
337	7.09
337.1	7.1
337.2	7.11
337.3	7.11
337.4	7.12
337.5	7.11
337.6	7.09
337.7	7.07
337.8	7.06
337.9	7.08
338	7.12
338.1	7.16
338.2	7.18
338.3	7.19
338.4	7.2
338.5	7.2
338.6	7.19
338.7	7.15
338.8	7.1
338.9	7.07
339	7.09
339.1	7.12
339.2	7.16
339.3	7.17
339.4	7.18
339.5	7.18
339.6	7.19
339.7	7.19
339.8	7.22
339.9	7.24
340	7.25
340.1	7.24
340.2	7.23
340.3	7.22
340.4	7.2
340.5	7.15
340.6	7.1
340.7	7.06
340.8	7.06
340.9	7.09
341	7.12
341.1	7.14
341.2	7.15
341.3	7.16
341.4	7.17
341.5	7.16
341.6	7.12
341.7	7.08
341.8	7.04
341.9	7.05
342	7.07
342.1	7.11
342.2	7.13
342.3	7.15
342.4	7.17
342.5	7.18
342.6	7.18
342.7	7.16
342.8	7.14
342.9	7.12
343	7.13
343.1	7.15
343.2	7.18
343.3	7.19
343.4	7.2
343.5	7.22
343.6	7.23
343.7	7.23
343.8	7.22
343.9	7.2
344	7.19
344.1	7.18
344.2	7.14
344.3	7.11
344.4	7.1
344.5	7.15
344.6	7.23
344.7	7.29
344.8	7.3
344.9	7.26
345	7.22
345.1	7.19
345.2	7.19
345.3	7.2
345.4	7.21
345.5	7.21
345.6	7.19
345.7	7.15
345.8	7.13
345.9	7.13
346	7.15
346.1	7.17
346.2	7.19
346.3	7.2
346.4	7.19
346.5	7.19
346.6	7.2
346.7	7.23
346.8	7.28
346.9	7.32
347	7.3
347.1	7.2
347.2	7.08
347.3	7.02
347.4	7.03
347.5	7.07
347.6	7.12
347.7	7.14
347.8	7.16
347.9	7.17
348	7.18
348.1	7.19
348.2	7.2
348.3	7.22
348.4	7.23
348.5	7.23
348.6	7.24
348.7	7.24
348.8	7.25
348.9	7.26
349	7.27
349.1	7.28
349.2	7.29
349.3	7.31
349.4	7.33
349.5	7.35
349.6	7.36
349.7	7.37
349.8	7.39
349.9	7.39
350	7.36
350.1	7.33
350.2	7.31
350.3	7.32
350.4	7.37
350.5	7.41
350.6	7.43
350.7	7.41
350.8	7.37
350.9	7.32
351	7.31
351.1	7.29
351.2	7.28
351.3	7.27
351.4	7.28
351.5	7.3
351.6	7.33
351.7	7.34
351.8	7.35
351.9	7.34
352	7.35
352.1	7.36
352.2	7.39
352.3	7.42
352.4	7.45
352.5	7.45
352.6	7.45
352.7	7.45
352.8	7.45
352.9	7.46
353	7.48
353.1	7.49
353.2	7.49
353.3	7.46
353.4	7.43
353.5	7.41
353.6	7.43
353.7	7.47
353.8	7.51
353.9	7.52
354	7.48
354.1	7.43
354.2	7.38
354.3	7.38
354.4	7.4
354.5	7.43
354.6	7.44
354.7	7.45
354.8	7.45
354.9	7.46
355	7.46
355.1	7.46
355.2	7.45
355.3	7.45
355.4	7.45
355.5	7.46
355.6	7.46
355.7	7.47
355.8	7.47
355.9	7.47
356	7.47
356.1	7.47
356.2	7.47
356.3	7.46
356.4	7.46
356.5	7.46
356.6	7.46
356.7	7.46
356.8	7.47
356.9	7.49
357	7.54
357.1	7.57
357.2	7.57
357.3	7.52
357.4	7.45
357.5	7.41
357.6	7.41
357.7	7.43
357.8	7.45
357.9	7.46
358	7.48
358.1	7.5
358.2	7.51
358.3	7.53
358.4	7.54
358.5	7.57
358.6	7.58
358.7	7.57
358.8	7.55
358.9	7.53
359	7.53
359.1	7.54
359.2	7.55
359.3	7.57
359.4	7.56
359.5	7.55
359.6	7.53
359.7	7.52
359.8	7.52
359.9	7.53
360	7.54
360.1	7.55
360.2	7.57
360.3	7.59
360.4	7.61
360.5	7.62
360.6	7.63
360.7	7.63
360.8	7.63
360.9	7.63
361	7.61
361.1	7.6
361.2	7.59
361.3	7.59
361.4	7.6
361.5	7.6
361.6	7.62
361.7	7.64
361.8	7.67
361.9	7.69
362	7.68
362.1	7.66
362.2	7.65
362.3	7.64
362.4	7.64
362.5	7.63
362.6	7.63
362.7	7.64
362.8	7.67
362.9	7.69
363	7.7
363.1	7.72
363.2	7.74
363.3	7.76
363.4	7.76
363.5	7.76
363.6	7.76
363.7	7.76
363.8	7.76
363.9	7.74
364	7.72
364.1	7.71
364.2	7.7
364.3	7.69
364.4	7.68
364.5	7.69
364.6	7.72
364.7	7.76
364.8	7.78
364.9	7.79
365	7.8
365.1	7.8
365.2	7.8
365.3	7.77
365.4	7.73
365.5	7.71
365.6	7.72
365.7	7.74
365.8	7.76
365.9	7.77
366	7.77
366.1	7.77
366.2	7.77
366.3	7.77
366.4	7.77
366.5	7.77
366.6	7.77
366.7	7.78
366.8	7.8
366.9	7.82
367	7.83
367.1	7.84
367.2	7.86
367.3	7.87
367.4	7.87
367.5	7.87
367.6	7.88
367.7	7.88
367.8	7.88
367.9	7.88
368	7.88
368.1	7.87
368.2	7.83
368.3	7.78
368.4	7.75
368.5	7.75
368.6	7.79
368.7	7.83
368.8	7.85
368.9	7.85
369	7.84
369.1	7.83
369.2	7.83
369.3	7.85
369.4	7.88
369.5	7.9
369.6	7.91
369.7	7.92
369.8	7.93
369.9	7.93
370	7.92
370.1	7.91
370.2	7.91
370.3	7.91
370.4	7.94
370.5	7.98
370.6	7.99
370.7	7.97
370.8	7.93
370.9	7.88
371	7.87
371.1	7.9
371.2	7.94
371.3	7.98
371.4	7.99
371.5	7.99
371.6	8
371.7	8
371.8	8
371.9	8
372	7.99
372.1	8
372.2	8.02
372.3	8.05
372.4	8.07
372.5	8.07
372.6	8.08
372.7	8.08
372.8	8.08
372.9	8.07
373	8.06
373.1	8.05
373.2	8.05
373.3	8.06
373.4	8.08
373.5	8.09
373.6	8.08
373.7	8.07
373.8	8.06
373.9	8.06
374	8.07
374.1	8.09
374.2	8.1
374.3	8.1
374.4	8.09
374.5	8.07
374.6	8.06
374.7	8.06
374.8	8.07
374.9	8.08
375	8.09
375.1	8.09
375.2	8.09
375.3	8.09
375.4	8.1
375.5	8.12
375.6	8.15
375.7	8.16
375.8	8.15
375.9	8.13
376	8.11
376.1	8.1
376.2	8.09
376.3	8.07
376.4	8.06
376.5	8.06
376.6	8.07
376.7	8.07
376.8	8.08
376.9	8.11
377	8.16
377.1	8.19
377.2	8.2
377.3	8.22
377.4	8.23
377.5	8.23
377.6	8.22
377.7	8.19
377.8	8.16
377.9	8.15
378	8.14
378.1	8.13
378.2	8.13
378.3	8.13
378.4	8.13
378.5	8.14
378.6	8.15
378.7	8.16
378.8	8.19
378.9	8.21
379	8.21
379.1	8.2
379.2	8.18
379.3	8.17
379.4	8.17
379.5	8.19
379.6	8.22
379.7	8.23
379.8	8.26
379.9	8.3
380	8.32
380.1	8.31
380.2	8.27
380.3	8.23
380.4	8.21
380.5	8.22
380.6	8.25
380.7	8.28
380.8	8.29
380.9	8.33
381	8.37
381.1	8.4
381.2	8.38
381.3	8.32
381.4	8.26
381.5	8.24
381.6	8.25
381.7	8.28
381.8	8.29
381.9	8.29
382	8.28
382.1	8.27
382.2	8.26
382.3	8.27
382.4	8.29
382.5	8.31
382.6	8.32
382.7	8.31
382.8	8.3
382.9	8.29
383	8.29
383.1	8.3
383.2	8.31
383.3	8.31
383.4	8.3
383.5	8.28
383.6	8.27
383.7	8.27
383.8	8.28
383.9	8.31
384	8.32
384.1	8.32
384.2	8.32
384.3	8.32
384.4	8.33
384.5	8.35
384.6	8.38
384.7	8.4
384.8	8.39
384.9	8.35
385	8.31
385.1	8.3
385.2	8.31
385.3	8.35
385.4	8.38
385.5	8.39
385.6	8.37
385.7	8.35
385.8	8.34
385.9	8.36
386	8.39
386.1	8.43
386.2	8.44
386.3	8.44
386.4	8.44
386.5	8.44
386.6	8.44
386.7	8.43
386.8	8.42
386.9	8.41
387	8.42
387.1	8.42
387.2	8.43
387.3	8.43
387.4	8.43
387.5	8.43
387.6	8.43
387.7	8.43
387.8	8.44
387.9	8.44
388	8.45
388.1	8.45
388.2	8.44
388.3	8.44
388.4	8.44
388.5	8.45
388.6	8.45
388.7	8.46
388.8	8.46
388.9	8.47
389	8.48
389.1	8.48
389.2	8.49
389.3	8.5
389.4	8.51
389.5	8.5
389.6	8.48
389.7	8.45
389.8	8.44
389.9	8.46
390	8.48
390.1	8.51
390.2	8.51
390.3	8.51
390.4	8.5
390.5	8.49
390.6	8.49
390.7	8.48
390.8	8.47
390.9	8.47
391	8.48
391.1	8.5
391.2	8.52
391.3	8.51
391.4	8.48
391.5	8.45
391.6	8.43
391.7	8.43
391.8	8.45
391.9	8.47
392	8.49
392.1	8.52
392.2	8.55
392.3	8.58
392.4	8.58
392.5	8.57
392.6	8.56
392.7	8.55
392.8	8.55
392.9	8.55
393	8.54
393.1	8.54
393.2	8.54
393.3	8.53
393.4	8.53
393.5	8.54
393.6	8.55
393.7	8.56
393.8	8.56
393.9	8.55
394	8.55
394.1	8.54
394.2	8.55
394.3	8.58
394.4	8.6
394.5	8.61
394.6	8.61
394.7	8.61
394.8	8.6
394.9	8.6
395	8.59
395.1	8.58
395.2	8.58
395.3	8.57
395.4	8.56
395.5	8.55
395.6	8.55
395.7	8.53
395.8	8.52
395.9	8.51
396	8.52
396.1	8.55
396.2	8.57
396.3	8.59
396.4	8.61
396.5	8.64
396.6	8.66
396.7	8.67
396.8	8.67
396.9	8.67
397	8.67
397.1	8.66
397.2	8.66
397.3	8.65
397.4	8.65
397.5	8.63
397.6	8.61
397.7	8.6
397.8	8.59
397.9	8.58
398	8.57
398.1	8.57
398.2	8.58
398.3	8.61
398.4	8.63
398.5	8.64
398.6	8.62
398.7	8.6
398.8	8.59
398.9	8.59
399	8.59
399.1	8.6
399.2	8.61
399.3	8.63
399.4	8.65
399.5	8.67
399.6	8.67
399.7	8.65
399.8	8.62
399.9	8.61
400	8.62
400.1	8.65
400.2	8.67
400.3	8.67
400.4	8.67
400.5	8.67
400.6	8.68
400.7	8.68
400.8	8.67
400.9	8.67
401	8.67
401.1	8.65
401.2	8.62
401.3	8.6
401.4	8.59
401.5	8.58
401.6	8.57
401.7	8.56
401.8	8.59
401.9	8.63
402	8.66
402.1	8.67
402.2	8.68
402.3	8.69
402.4	8.7
402.5	8.69
402.6	8.67
402.7	8.65
402.8	8.64
402.9	8.65
403	8.66
403.1	8.66
403.2	8.66
403.3	8.66
403.4	8.65
403.5	8.65
403.6	8.66
403.7	8.67
403.8	8.68
403.9	8.68
404	8.67
404.1	8.65
404.2	8.65
404.3	8.65
404.4	8.65
404.5	8.66
404.6	8.65
404.7	8.65
404.8	8.63
404.9	8.62
405	8.61
405.1	8.61
405.2	8.61
405.3	8.61
405.4	8.63
405.5	8.66
405.6	8.69
405.7	8.69
405.8	8.68
405.9	8.66
406	8.65
406.1	8.68
406.2	8.73
406.3	8.79
406.4	8.8
406.5	8.79
406.6	8.77
406.7	8.75
406.8	8.73
406.9	8.69
407	8.65
407.1	8.63
407.2	8.66
407.3	8.7
407.4	8.74
407.5	8.76
407.6	8.78
407.7	8.79
407.8	8.8
407.9	8.78
408	8.75
408.1	8.72
408.2	8.7
408.3	8.69
408.4	8.68
408.5	8.67
408.6	8.67
408.7	8.66
408.8	8.65
408.9	8.64
409	8.66
409.1	8.68
409.2	8.69
409.3	8.68
409.4	8.66
409.5	8.64
409.6	8.63
409.7	8.63
409.8	8.64
409.9	8.64
410	8.65
410.1	8.66
410.2	8.67
410.3	8.68
410.4	8.69
410.5	8.7
410.6	8.7
410.7	8.7
410.8	8.7
410.9	8.69
411	8.69
411.1	8.69
411.2	8.68
411.3	8.68
411.4	8.67
411.5	8.65
411.6	8.62
411.7	8.6
411.8	8.6
411.9	8.64
412	8.69
412.1	8.72
412.2	8.73
412.3	8.73
412.4	8.73
412.5	8.73
412.6	8.71
412.7	8.68
412.8	8.65
412.9	8.65
413	8.67
413.1	8.68
413.2	8.69
413.3	8.69
413.4	8.69
413.5	8.7
413.6	8.7
413.7	8.71
413.8	8.72
413.9	8.73
414	8.75
414.1	8.79
414.2	8.82
414.3	8.82
414.4	8.8
414.5	8.78
414.6	8.76
414.7	8.75
414.8	8.73
414.9	8.72
415	8.72
415.1	8.72
415.2	8.72
415.3	8.71
415.4	8.71
415.5	8.7
415.6	8.69
415.7	8.69
415.8	8.7
415.9	8.74
416	8.77
416.1	8.77
416.2	8.75
416.3	8.73
416.4	8.71
416.5	8.7
416.6	8.7
416.7	8.7
416.8	8.7
416.9	8.7
417	8.7
417.1	8.7
417.2	8.7
417.3	8.69
417.4	8.69
417.5	8.69
417.6	8.71
417.7	8.73
417.8	8.74
417.9	8.74
418	8.7
418.1	8.66
418.2	8.64
418.3	8.63
418.4	8.61
418.5	8.6
418.6	8.6
418.7	8.63
418.8	8.68
418.9	8.71
419	8.72
419.1	8.73
419.2	8.73
419.3	8.74
419.4	8.72
419.5	8.69
419.6	8.68
419.7	8.68
419.8	8.7
419.9	8.73
420	8.75
420.1	8.75
420.2	8.75
420.3	8.74
420.4	8.73
420.5	8.68
420.6	8.62
420.7	8.59
420.8	8.61
420.9	8.65
421	8.69
421.1	8.71
421.2	8.7
421.3	8.69
421.4	8.67
421.5	8.67
421.6	8.68
421.7	8.7
421.8	8.7
421.9	8.68
422	8.64
422.1	8.61
422.2	8.61
422.3	8.62
422.4	8.64
422.5	8.66
422.6	8.67
422.7	8.69
422.8	8.71
422.9	8.71
423	8.71
423.1	8.7
423.2	8.69
423.3	8.68
423.4	8.68
423.5	8.68
423.6	8.69
423.7	8.69
423.8	8.7
423.9	8.71
424	8.72
424.1	8.72
424.2	8.72
424.3	8.72
424.4	8.73
424.5	8.74
424.6	8.74
424.7	8.74
424.8	8.72
424.9	8.69
425	8.67
425.1	8.67
425.2	8.67
425.3	8.67
425.4	8.68
425.5	8.7
425.6	8.72
425.7	8.73
425.8	8.72
425.9	8.69
426	8.66
426.1	8.65
426.2	8.65
426.3	8.65
426.4	8.65
426.5	8.65
426.6	8.65
426.7	8.66
426.8	8.67
426.9	8.69
427	8.72
427.1	8.75
427.2	8.76
427.3	8.74
427.4	8.72
427.5	8.71
427.6	8.7
427.7	8.69
427.8	8.68
427.9	8.67
428	8.68
428.1	8.7
428.2	8.71
428.3	8.71
428.4	8.69
428.5	8.67
428.6	8.66
428.7	8.65
428.8	8.63
428.9	8.63
429	8.63
429.1	8.63
429.2	8.63
429.3	8.64
429.4	8.65
429.5	8.66
429.6	8.67
429.7	8.67
429.8	8.65
429.9	8.64
430	8.63
430.1	8.63
430.2	8.63
430.3	8.64
430.4	8.65
430.5	8.67
430.6	8.7
430.7	8.72
430.8	8.71
430.9	8.68
431	8.64
431.1	8.63
431.2	8.64
431.3	8.65
431.4	8.66
431.5	8.65
431.6	8.63
431.7	8.62
431.8	8.61
431.9	8.62
432	8.64
432.1	8.66
432.2	8.66
432.3	8.66
432.4	8.66
432.5	8.65
432.6	8.65
432.7	8.64
432.8	8.63
432.9	8.63
433	8.62
433.1	8.62
433.2	8.61
433.3	8.6
433.4	8.59
433.5	8.57
433.6	8.57
433.7	8.58
433.8	8.6
433.9	8.61
434	8.61
434.1	8.6
434.2	8.59
434.3	8.58
434.4	8.59
434.5	8.59
434.6	8.6
434.7	8.61
434.8	8.61
434.9	8.62
435	8.63
435.1	8.62
435.2	8.62
435.3	8.61
435.4	8.6
435.5	8.6
435.6	8.59
435.7	8.59
435.8	8.6
435.9	8.61
436	8.63
436.1	8.63
436.2	8.62
436.3	8.61
436.4	8.6
436.5	8.59
436.6	8.57
436.7	8.55
436.8	8.55
436.9	8.58
437	8.64
437.1	8.68
437.2	8.69
437.3	8.67
437.4	8.65
437.5	8.64
437.6	8.62
437.7	8.59
437.8	8.57
437.9	8.57
438	8.6
438.1	8.64
438.2	8.66
438.3	8.66
438.4	8.64
438.5	8.62
438.6	8.62
438.7	8.63
438.8	8.64
438.9	8.64
439	8.64
439.1	8.63
439.2	8.61
439.3	8.6
439.4	8.59
439.5	8.58
439.6	8.57
439.7	8.58
439.8	8.61
439.9	8.64
440	8.66
440.1	8.67
440.2	8.7
440.3	8.72
440.4	8.72
440.5	8.71
440.6	8.69
440.7	8.68
440.8	8.68
440.9	8.7
441	8.71
441.1	8.71
441.2	8.69
441.3	8.67
441.4	8.65
441.5	8.65
441.6	8.67
441.7	8.68
441.8	8.68
441.9	8.68
442	8.69
442.1	8.69
442.2	8.69
442.3	8.68
442.4	8.68
442.5	8.68
442.6	8.67
442.7	8.66
442.8	8.66
442.9	8.67
443	8.72
443.1	8.76
443.2	8.79
443.3	8.79
443.4	8.78
443.5	8.77
443.6	8.76
443.7	8.73
443.8	8.7
443.9	8.68
444	8.69
444.1	8.7
444.2	8.72
444.3	8.72
444.4	8.69
444.5	8.67
444.6	8.65
444.7	8.65
444.8	8.66
444.9	8.68
445	8.69
445.1	8.71
445.2	8.74
445.3	8.75
445.4	8.76
445.5	8.76
445.6	8.76
445.7	8.75
445.8	8.75
445.9	8.73
446	8.73
446.1	8.73
446.2	8.75
446.3	8.76
446.4	8.77
446.5	8.76
446.6	8.75
446.7	8.74
446.8	8.74
446.9	8.76
447	8.79
447.1	8.8
447.2	8.8
447.3	8.79
447.4	8.79
447.5	8.79
447.6	8.83
447.7	8.87
447.8	8.9
447.9	8.89
448	8.86
448.1	8.83
448.2	8.82
448.3	8.84
448.4	8.87
448.5	8.89
448.6	8.88
448.7	8.84
448.8	8.8
448.9	8.78
449	8.79
449.1	8.82
449.2	8.84
449.3	8.85
449.4	8.85
449.5	8.86
449.6	8.86
449.7	8.87
449.8	8.88
449.9	8.89
450	8.9
450.1	8.9
450.2	8.9
450.3	8.9
450.4	8.88
450.5	8.85
450.6	8.82
450.7	8.81
450.8	8.83
450.9	8.86
451	8.87
451.1	8.87
451.2	8.86
451.3	8.85
451.4	8.85
451.5	8.85
451.6	8.85
451.7	8.86
451.8	8.88
451.9	8.91
452	8.95
452.1	8.96
452.2	8.95
452.3	8.93
452.4	8.91
452.5	8.9
452.6	8.86
452.7	8.83
452.8	8.82
452.9	8.84
453	8.88
453.1	8.91
453.2	8.92
453.3	8.92
453.4	8.91
453.5	8.9
453.6	8.91
453.7	8.92
453.8	8.93
453.9	8.94
454	8.94
454.1	8.94
454.2	8.95
454.3	8.97
454.4	9
454.5	9.02
454.6	9.02
454.7	9
454.8	8.97
454.9	8.95
455	8.94
455.1	8.94
455.2	8.94
455.3	8.95
455.4	8.95
455.5	8.96
455.6	8.97
455.7	8.97
455.8	8.96
455.9	8.96
456	8.95
456.1	8.95
456.2	8.95
456.3	8.94
456.4	8.93
456.5	8.92
456.6	8.91
456.7	8.91
456.8	8.92
456.9	8.93
457	8.94
457.1	8.95
457.2	8.96
457.3	8.97
457.4	8.98
457.5	8.98
457.6	8.97
457.7	8.97
457.8	8.96
457.9	8.93
458	8.9
458.1	8.89
458.2	8.9
458.3	8.93
458.4	8.96
458.5	8.96
458.6	8.96
458.7	8.95
458.8	8.94
458.9	8.95
459	8.96
459.1	8.97
459.2	8.97
459.3	8.98
459.4	9
459.5	9
459.6	9
459.7	9
459.8	8.99
459.9	8.99
460	8.97
460.1	8.96
460.2	8.95
460.3	8.94
460.4	8.94
460.5	8.95
460.6	8.94
460.7	8.92
460.8	8.9
460.9	8.89
461	8.89
461.1	8.91
461.2	8.94
461.3	8.95
461.4	8.97
461.5	8.99
461.6	9
461.7	9.01
461.8	9.02
461.9	9.04
462	9.04
462.1	9.03
462.2	9
462.3	8.97
462.4	8.96
462.5	8.95
462.6	8.94
462.7	8.94
462.8	8.95
462.9	8.97
463	8.99
463.1	8.99
463.2	8.99
463.3	8.98
463.4	8.97
463.5	8.98
463.6	8.98
463.7	8.99
463.8	8.99
463.9	8.99
464	8.99
464.1	9
464.2	9
464.3	9
464.4	9
464.5	9
464.6	9
464.7	9
464.8	9
464.9	9
465	8.99
465.1	8.98
465.2	8.98
465.3	9
465.4	9.01
465.5	9.03
465.6	9.02
465.7	8.98
465.8	8.94
465.9	8.93
466	8.95
466.1	8.99
466.2	9.02
466.3	9.02
466.4	9
466.5	8.97
466.6	8.95
466.7	8.95
466.8	8.94
466.9	8.94
467	8.94
467.1	8.93
467.2	8.92
467.3	8.92
467.4	8.93
467.5	8.94
467.6	8.95
467.7	8.95
467.8	8.93
467.9	8.91
468	8.91
468.1	8.91
468.2	8.92
468.3	8.93
468.4	8.93
468.5	8.92
468.6	8.91
468.7	8.9
468.8	8.9
468.9	8.91
469	8.92
469.1	8.93
469.2	8.95
469.3	8.98
469.4	8.99
469.5	8.99
469.6	8.97
469.7	8.96
469.8	8.96
469.9	8.96
470	8.97
470.1	8.98
470.2	8.98
470.3	8.98
470.4	8.98
470.5	8.98
470.6	8.98
470.7	8.97
470.8	8.97
470.9	8.97
471	8.98
471.1	8.99
471.2	8.99
471.3	8.99
471.4	8.99
471.5	8.98
471.6	8.98
471.7	8.99
471.8	8.99
471.9	8.99
472	8.98
472.1	8.97
472.2	8.97
472.3	8.97
472.4	8.97
472.5	8.98
472.6	8.99
472.7	9
472.8	9.03
472.9	9.04
473	9.04
473.1	9.03
473.2	9.02
473.3	9.01
473.4	9
473.5	8.98
473.6	8.97
473.7	8.97
473.8	8.97
473.9	8.96
474	8.97
474.1	8.98
474.2	8.99
474.3	9
474.4	9.01
474.5	9
474.6	8.98
474.7	8.98
474.8	9
474.9	9.03
475	9.06
475.1	9.06
475.2	9.03
475.3	8.99
475.4	8.96
475.5	8.97
475.6	8.98
475.7	8.99
475.8	9
475.9	9
476	9
476.1	9.01
476.2	9.01
476.3	9.03
476.4	9.04
476.5	9.04
476.6	9.04
476.7	9.04
476.8	9.04
476.9	9.03
477	9.02
477.1	9.01
477.2	9.01
477.3	9.03
477.4	9.06
477.5	9.08
477.6	9.06
477.7	9.03
477.8	8.99
477.9	8.98
478	8.97
478.1	8.96
478.2	8.96
478.3	8.96
478.4	8.96
478.5	8.97
478.6	8.97
478.7	8.99
478.8	9.02
478.9	9.04
479	9.05
479.1	9.07
479.2	9.08
479.3	9.08
479.4	9.06
479.5	9.04
479.6	9.03
479.7	9.03
479.8	9.04
479.9	9.05
480	9.06
480.1	9.07
480.2	9.09
480.3	9.1
480.4	9.1
480.5	9.09
480.6	9.08
480.7	9.07
480.8	9.06
480.9	9.06
481	9.05
481.1	9.05
481.2	9.06
481.3	9.07
481.4	9.08
481.5	9.09
481.6	9.1
481.7	9.11
481.8	9.11
481.9	9.11
482	9.1
482.1	9.1
482.2	9.1
482.3	9.11
482.4	9.11
482.5	9.11
482.6	9.1
482.7	9.08
482.8	9.08
482.9	9.08
483	9.09
483.1	9.1
483.2	9.1
483.3	9.1
483.4	9.1
483.5	9.1
483.6	9.11
483.7	9.12
483.8	9.13
483.9	9.13
484	9.13
484.1	9.13
484.2	9.13
484.3	9.13
484.4	9.15
484.5	9.16
484.6	9.16
484.7	9.15
484.8	9.14
484.9	9.14
485	9.15
485.1	9.16
485.2	9.17
485.3	9.17
485.4	9.17
485.5	9.17
485.6	9.17
485.7	9.17
485.8	9.17
485.9	9.18
486	9.18
486.1	9.19
486.2	9.2
486.3	9.2
486.4	9.19
486.5	9.16
486.6	9.14
486.7	9.14
486.8	9.15
486.9	9.17
487	9.18
487.1	9.18
487.2	9.17
487.3	9.17
487.4	9.17
487.5	9.17
487.6	9.18
487.7	9.18
487.8	9.19
487.9	9.2
488	9.2
488.1	9.2
488.2	9.2
488.3	9.19
488.4	9.19
488.5	9.18
488.6	9.18
488.7	9.17
488.8	9.17
488.9	9.17
489	9.18
489.1	9.19
489.2	9.2
489.3	9.2
489.4	9.21
489.5	9.21
489.6	9.2
489.7	9.19
489.8	9.18
489.9	9.18
490	9.19
490.1	9.2
490.2	9.21
490.3	9.22
490.4	9.24
490.5	9.25
490.6	9.26
490.7	9.26
490.8	9.27
490.9	9.27
491	9.27
491.1	9.27
491.2	9.27
491.3	9.27
491.4	9.27
491.5	9.27
491.6	9.27
491.7	9.27
491.8	9.27
491.9	9.27
492	9.28
492.1	9.29
492.2	9.3
492.3	9.31
492.4	9.32
492.5	9.34
492.6	9.35
492.7	9.35
492.8	9.35
492.9	9.35
493	9.35
493.1	9.35
493.2	9.35
493.3	9.34
493.4	9.35
493.5	9.35
493.6	9.35
493.7	9.36
493.8	9.37
493.9	9.39
494	9.4
494.1	9.4
494.2	9.39
494.3	9.38
494.4	9.38
494.5	9.41
494.6	9.44
494.7	9.46
494.8	9.48
494.9	9.5
495	9.51
495.1	9.52
495.2	9.51
495.3	9.5
495.4	9.5
495.5	9.49
495.6	9.49
495.7	9.49
495.8	9.49
495.9	9.48
496	9.47
496.1	9.46
496.2	9.48
496.3	9.5
496.4	9.53
496.5	9.53
496.6	9.53
496.7	9.53
496.8	9.53
496.9	9.54
497	9.57
497.1	9.6
497.2	9.61
497.3	9.62
497.4	9.63
497.5	9.63
497.6	9.64
497.7	9.66
497.8	9.68
497.9	9.68
498	9.68
498.1	9.68
498.2	9.68
498.3	9.68
498.4	9.67
498.5	9.67
498.6	9.67
498.7	9.67
498.8	9.68
498.9	9.69
499	9.7
499.1	9.72
499.2	9.75
499.3	9.76
499.4	9.76
499.5	9.76
499.6	9.77
499.7	9.78
499.8	9.81
499.9	9.83
500	9.84
500.1	9.84
500.2	9.85
500.3	9.85
500.4	9.85
500.5	9.85
500.6	9.85
500.7	9.86
500.8	9.88
500.9	9.92
501	9.94
501.1	9.96
501.2	9.98
501.3	10.01
501.4	10.01
501.5	10.01
501.6	10
501.7	10
501.8	10.01
501.9	10.02
502	10.04
502.1	10.05
502.2	10.07
502.3	10.09
502.4	10.11
502.5	10.11
502.6	10.11
502.7	10.11
502.8	10.12
502.9	10.14
503	10.17
503.1	10.19
503.2	10.2
503.3	10.22
503.4	10.24
503.5	10.24
503.6	10.25
503.7	10.25
503.8	10.25
503.9	10.25
504	10.25
504.1	10.25
504.2	10.26
504.3	10.28
504.4	10.3
504.5	10.32
504.6	10.34
504.7	10.37
504.8	10.4
504.9	10.41
505	10.44
505.1	10.46
505.2	10.47
505.3	10.47
505.4	10.45
505.5	10.45
505.6	10.46
505.7	10.5
505.8	10.55
505.9	10.57
506	10.57
506.1	10.56
506.2	10.55
506.3	10.56
506.4	10.59
506.5	10.63
506.6	10.65
506.7	10.66
506.8	10.68
506.9	10.69
507	10.71
507.1	10.73
507.2	10.76
507.3	10.78
507.4	10.8
507.5	10.82
507.6	10.84
507.7	10.84
507.8	10.85
507.9	10.86
508	10.87
508.1	10.88
508.2	10.9
508.3	10.92
508.4	10.93
508.5	10.95
508.6	10.98
508.7	11
508.8	11.02
508.9	11.05
509	11.07
509.1	11.08
509.2	11.09
509.3	11.1
509.4	11.11
509.5	11.13
509.6	11.17
509.7	11.2
509.8	11.22
509.9	11.24
510	11.27
510.1	11.28
510.2	11.29
510.3	11.3
510.4	11.31
510.5	11.34
510.6	11.38
510.7	11.43
510.8	11.45
510.9	11.46
511	11.47
511.1	11.48
511.2	11.49
511.3	11.5
511.4	11.52
511.5	11.54
511.6	11.57
511.7	11.61
511.8	11.65
511.9	11.67
512	11.7
512.1	11.72
512.2	11.74
512.3	11.77
512.4	11.8
512.5	11.82
512.6	11.83
512.7	11.85
512.8	11.86
512.9	11.88
513	11.93
513.1	11.98
513.2	12.02
513.3	12.05
513.4	12.08
513.5	12.11
513.6	12.13
513.7	12.13
513.8	12.14
513.9	12.16
514	12.2
514.1	12.27
514.2	12.32
514.3	12.34
514.4	12.35
514.5	12.35
514.6	12.35
514.7	12.37
514.8	12.39
514.9	12.41
515	12.43
515.1	12.46
515.2	12.48
515.3	12.51
515.4	12.53
515.5	12.56
515.6	12.6
515.7	12.62
515.8	12.67
515.9	12.72
516	12.75
516.1	12.78
516.2	12.8
516.3	12.82
516.4	12.84
516.5	12.87
516.6	12.9
516.7	12.92
516.8	12.94
516.9	12.97
517	13
517.1	13.04
517.2	13.1
517.3	13.16
517.4	13.2
517.5	13.23
517.6	13.26
517.7	13.29
517.8	13.29
517.9	13.29
518	13.3
518.1	13.31
518.2	13.36
518.3	13.42
518.4	13.47
518.5	13.51
518.6	13.54
518.7	13.58
518.8	13.6
518.9	13.61
519	13.63
519.1	13.65
519.2	13.68
519.3	13.73
519.4	13.78
519.5	13.81
519.6	13.83
519.7	13.84
519.8	13.86
519.9	13.89
520	13.94
520.1	13.99
520.2	14.01
520.3	14.03
520.4	14.06
520.5	14.08
520.6	14.12
520.7	14.17
520.8	14.22
520.9	14.25
521	14.28
521.1	14.3
521.2	14.33
521.3	14.38
521.4	14.45
521.5	14.51
521.6	14.54
521.7	14.57
521.8	14.6
521.9	14.62
522	14.62
522.1	14.63
522.2	14.63
522.3	14.65
522.4	14.69
522.5	14.74
522.6	14.78
522.7	14.81
522.8	14.84
522.9	14.88
523	14.9
523.1	14.93
523.2	14.96
523.3	14.98
523.4	15
523.5	15.04
523.6	15.08
523.7	15.11
523.8	15.15
523.9	15.2
524	15.22
524.1	15.25
524.2	15.27
524.3	15.29
524.4	15.32
524.5	15.36
524.6	15.4
524.7	15.42
524.8	15.46
524.9	15.49
525	15.52
525.1	15.54
525.2	15.57
525.3	15.59
525.4	15.61
525.5	15.64
525.6	15.68
525.7	15.71
525.8	15.75
525.9	15.8
526	15.84
526.1	15.86
526.2	15.88
526.3	15.9
526.4	15.92
526.5	15.93
526.6	15.95
526.7	15.97
526.8	15.99
526.9	16.04
527	16.08
527.1	16.11
527.2	16.12
527.3	16.13
527.4	16.14
527.5	16.16
527.6	16.19
527.7	16.23
527.8	16.25
527.9	16.28
528	16.31
528.1	16.35
528.2	16.37
528.3	16.4
528.4	16.43
528.5	16.45
528.6	16.47
528.7	16.5
528.8	16.52
528.9	16.53
529	16.54
529.1	16.56
529.2	16.58
529.3	16.64
529.4	16.7
529.5	16.74
529.6	16.74
529.7	16.73
529.8	16.72
529.9	16.72
530	16.72
530.1	16.73
530.2	16.74
530.3	16.76
530.4	16.79
530.5	16.82
530.6	16.83
530.7	16.85
530.8	16.87
530.9	16.89
531	16.9
531.1	16.92
531.2	16.95
531.3	16.98
531.4	17.04
531.5	17.11
531.6	17.15
531.7	17.15
531.8	17.15
531.9	17.15
532	17.15
532.1	17.14
532.2	17.14
532.3	17.15
532.4	17.19
532.5	17.24
532.6	17.27
532.7	17.28
532.8	17.29
532.9	17.29
533	17.29
533.1	17.3
533.2	17.31
533.3	17.32
533.4	17.33
533.5	17.35
533.6	17.38
533.7	17.39
533.8	17.42
533.9	17.45
534	17.47
534.1	17.48
534.2	17.5
534.3	17.51
534.4	17.52
534.5	17.52
534.6	17.53
534.7	17.53
534.8	17.55
534.9	17.58
535	17.6
535.1	17.6
535.2	17.59
535.3	17.58
535.4	17.58
535.5	17.59
535.6	17.61
535.7	17.63
535.8	17.64
535.9	17.66
536	17.68
536.1	17.69
536.2	17.71
536.3	17.74
536.4	17.76
536.5	17.76
536.6	17.74
536.7	17.73
536.8	17.73
536.9	17.73
537	17.74
537.1	17.75
537.2	17.76
537.3	17.78
537.4	17.79
537.5	17.8
537.6	17.8
537.7	17.81
537.8	17.82
537.9	17.83
538	17.84
538.1	17.85
538.2	17.85
538.3	17.86
538.4	17.86
538.5	17.86
538.6	17.86
538.7	17.86
538.8	17.85
538.9	17.85
539	17.86
539.1	17.86
539.2	17.87
539.3	17.89
539.4	17.92
539.5	17.94
539.6	17.94
539.7	17.94
539.8	17.94
539.9	17.94
540	17.93
540.1	17.93
540.2	17.92
540.3	17.92
540.4	17.91
540.5	17.91
540.6	17.91
540.7	17.92
540.8	17.93
540.9	17.93
541	17.94
541.1	17.95
541.2	17.96
541.3	17.96
541.4	17.98
541.5	18
541.6	18
541.7	18
541.8	17.99
541.9	17.99
542	18
542.1	18.02
542.2	18.05
542.3	18.06
542.4	18.05
542.5	18.03
542.6	18.02
542.7	18.01
542.8	18.02
542.9	18.02
543	18.02
543.1	18.02
543.2	18.02
543.3	18.02
543.4	18.03
543.5	18.06
543.6	18.09
543.7	18.1
543.8	18.08
543.9	18.05
544	18.04
544.1	18.04
544.2	18.05
544.3	18.07
544.4	18.08
544.5	18.11
544.6	18.13
544.7	18.14
544.8	18.14
544.9	18.13
545	18.12
545.1	18.12
545.2	18.13
545.3	18.14
545.4	18.14
545.5	18.16
545.6	18.19
545.7	18.21
545.8	18.2
545.9	18.16
546	18.13
546.1	18.11
546.2	18.11
546.3	18.11
546.4	18.12
546.5	18.13
546.6	18.16
546.7	18.18
546.8	18.19
546.9	18.18
547	18.18
547.1	18.18
547.2	18.18
547.3	18.19
547.4	18.2
547.5	18.2
547.6	18.2
547.7	18.19
547.8	18.19
547.9	18.21
548	18.26
548.1	18.29
548.2	18.29
548.3	18.29
548.4	18.28
548.5	18.27
548.6	18.27
548.7	18.26
548.8	18.26
548.9	18.26
549	18.27
549.1	18.27
549.2	18.27
549.3	18.27
549.4	18.26
549.5	18.26
549.6	18.27
549.7	18.29
549.8	18.31
549.9	18.31
550	18.3
550.1	18.29
550.2	18.28
550.3	18.29
550.4	18.31
550.5	18.32
550.6	18.33
550.7	18.33
550.8	18.33
550.9	18.33
551	18.33
551.1	18.34
551.2	18.34
551.3	18.33
551.4	18.3
551.5	18.28
551.6	18.28
551.7	18.31
551.8	18.34
551.9	18.36
552	18.36
552.1	18.34
552.2	18.33
552.3	18.33
552.4	18.34
552.5	18.35
552.6	18.35
552.7	18.34
552.8	18.33
552.9	18.32
553	18.32
553.1	18.33
553.2	18.34
553.3	18.34
553.4	18.31
553.5	18.27
553.6	18.25
553.7	18.24
553.8	18.24
553.9	18.25
554	18.25
554.1	18.27
554.2	18.28
554.3	18.29
554.4	18.28
554.5	18.25
554.6	18.23
554.7	18.23
554.8	18.24
554.9	18.26
555	18.27
555.1	18.27
555.2	18.28
555.3	18.28
555.4	18.27
555.5	18.25
555.6	18.22
555.7	18.2
555.8	18.18
555.9	18.15
556	18.13
556.1	18.13
556.2	18.15
556.3	18.18
556.4	18.19
556.5	18.19
556.6	18.2
556.7	18.21
556.8	18.2
556.9	18.18
557	18.16
557.1	18.15
557.2	18.13
557.3	18.11
557.4	18.1
557.5	18.09
557.6	18.08
557.7	18.07
557.8	18.06
557.9	18.04
558	18.02
558.1	18.01
558.2	18.01
558.3	18.02
558.4	18.02
558.5	18
558.6	17.97
558.7	17.94
558.8	17.93
558.9	17.93
559	17.95
559.1	17.96
559.2	17.95
559.3	17.94
559.4	17.92
559.5	17.91
559.6	17.9
559.7	17.89
559.8	17.89
559.9	17.88
560	17.87
560.1	17.86
560.2	17.84
560.3	17.82
560.4	17.8
560.5	17.78
560.6	17.77
560.7	17.76
560.8	17.75
560.9	17.74
561	17.74
561.1	17.73
561.2	17.73
561.3	17.72
561.4	17.71
561.5	17.69
561.6	17.66
561.7	17.62
561.8	17.58
561.9	17.58
562	17.58
562.1	17.59
562.2	17.59
562.3	17.57
562.4	17.53
562.5	17.5
562.6	17.49
562.7	17.48
562.8	17.47
562.9	17.46
563	17.43
563.1	17.39
563.2	17.37
563.3	17.37
563.4	17.38
563.5	17.38
563.6	17.38
563.7	17.36
563.8	17.34
563.9	17.32
564	17.29
564.1	17.26
564.2	17.22
564.3	17.21
564.4	17.19
564.5	17.17
564.6	17.16
564.7	17.15
564.8	17.15
564.9	17.14
565	17.13
565.1	17.1
565.2	17.07
565.3	17.06
565.4	17.04
565.5	17.02
565.6	17
565.7	16.98
565.8	16.96
565.9	16.93
566	16.91
566.1	16.89
566.2	16.87
566.3	16.85
566.4	16.84
566.5	16.81
566.6	16.8
566.7	16.8
566.8	16.8
566.9	16.8
567	16.79
567.1	16.75
567.2	16.7
567.3	16.66
567.4	16.64
567.5	16.6
567.6	16.58
567.7	16.57
567.8	16.56
567.9	16.56
568	16.55
568.1	16.54
568.2	16.51
568.3	16.49
568.4	16.48
568.5	16.49
568.6	16.5
568.7	16.49
568.8	16.46
568.9	16.41
569	16.37
569.1	16.35
569.2	16.32
569.3	16.3
569.4	16.28
569.5	16.27
569.6	16.25
569.7	16.23
569.8	16.23
569.9	16.22
570	16.21
570.1	16.2
570.2	16.18
570.3	16.15
570.4	16.14
570.5	16.13
570.6	16.11
570.7	16.1
570.8	16.09
570.9	16.07
571	16.06
571.1	16.05
571.2	16.03
571.3	16.02
571.4	16
571.5	15.98
571.6	15.95
571.7	15.93
571.8	15.92
571.9	15.91
572	15.9
572.1	15.89
572.2	15.88
572.3	15.86
572.4	15.84
572.5	15.82
572.6	15.79
572.7	15.77
572.8	15.75
572.9	15.74
573	15.73
573.1	15.72
573.2	15.71
573.3	15.68
573.4	15.65
573.5	15.64
573.6	15.62
573.7	15.6
573.8	15.59
573.9	15.56
574	15.52
574.1	15.5
574.2	15.49
574.3	15.49
574.4	15.49
574.5	15.48
574.6	15.45
574.7	15.42
574.8	15.41
574.9	15.41
575	15.42
575.1	15.43
575.2	15.43
575.3	15.41
575.4	15.39
575.5	15.38
575.6	15.34
575.7	15.29
575.8	15.26
575.9	15.25
576	15.26
576.1	15.27
576.2	15.27
576.3	15.25
576.4	15.23
576.5	15.21
576.6	15.19
576.7	15.18
576.8	15.16
576.9	15.15
577	15.14
577.1	15.12
577.2	15.11
577.3	15.1
577.4	15.08
577.5	15.07
577.6	15.07
577.7	15.06
577.8	15.06
577.9	15.05
578	15.03
578.1	15.01
578.2	14.98
578.3	14.96
578.4	14.93
578.5	14.9
578.6	14.9
578.7	14.91
578.8	14.92
578.9	14.92
579	14.91
579.1	14.88
579.2	14.87
579.3	14.86
579.4	14.85
579.5	14.84
579.6	14.84
579.7	14.82
579.8	14.8
579.9	14.79
580	14.79
580.1	14.79
580.2	14.78
580.3	14.77
580.4	14.75
580.5	14.72
580.6	14.7
580.7	14.7
580.8	14.69
580.9	14.69
581	14.68
581.1	14.66
581.2	14.65
581.3	14.64
581.4	14.64
581.5	14.64
581.6	14.63
581.7	14.62
581.8	14.59
581.9	14.56
582	14.55
582.1	14.56
582.2	14.56
582.3	14.56
582.4	14.55
582.5	14.54
582.6	14.52
582.7	14.51
582.8	14.49
582.9	14.46
583	14.45
583.1	14.44
583.2	14.42
583.3	14.41
583.4	14.4
583.5	14.38
583.6	14.37
583.7	14.35
583.8	14.33
583.9	14.31
584	14.3
584.1	14.29
584.2	14.28
584.3	14.27
584.4	14.26
584.5	14.23
584.6	14.2
584.7	14.19
584.8	14.19
584.9	14.19
585	14.19
585.1	14.19
585.2	14.18
585.3	14.18
585.4	14.17
585.5	14.16
585.6	14.14
585.7	14.13
585.8	14.12
585.9	14.11
586	14.1
586.1	14.1
586.2	14.11
586.3	14.12
586.4	14.12
586.5	14.09
586.6	14.06
586.7	14.04
586.8	14.03
586.9	14.02
587	14.01
587.1	14.01
587.2	14.01
587.3	14.01
587.4	14
587.5	13.97
587.6	13.93
587.7	13.91
587.8	13.9
587.9	13.9
588	13.9
588.1	13.9
588.2	13.89
588.3	13.89
588.4	13.88
588.5	13.86
588.6	13.83
588.7	13.8
588.8	13.79
588.9	13.76
589	13.75
589.1	13.74
589.2	13.74
589.3	13.74
589.4	13.74
589.5	13.73
589.6	13.72
589.7	13.71
589.8	13.71
589.9	13.72
590	13.72
590.1	13.73
590.2	13.72
590.3	13.71
590.4	13.7
590.5	13.7
590.6	13.69
590.7	13.68
590.8	13.67
590.9	13.67
591	13.66
591.1	13.65
591.2	13.63
591.3	13.6
591.4	13.58
591.5	13.58
591.6	13.6
591.7	13.61
591.8	13.62
591.9	13.61
592	13.6
592.1	13.59
592.2	13.58
592.3	13.58
592.4	13.57
592.5	13.57
592.6	13.57
592.7	13.56
592.8	13.56
592.9	13.55
593	13.54
593.1	13.53
593.2	13.53
593.3	13.54
593.4	13.56
593.5	13.56
593.6	13.55
593.7	13.54
593.8	13.54
593.9	13.54
594	13.53
594.1	13.52
594.2	13.52
594.3	13.52
594.4	13.52
594.5	13.52
594.6	13.52
594.7	13.53
594.8	13.53
594.9	13.52
595	13.49
595.1	13.47
595.2	13.46
595.3	13.43
595.4	13.41
595.5	13.4
595.6	13.4
595.7	13.42
595.8	13.42
595.9	13.42
596	13.41
596.1	13.4
596.2	13.4
596.3	13.42
596.4	13.44
596.5	13.45
596.6	13.43
596.7	13.4
596.8	13.37
596.9	13.37
597	13.39
597.1	13.41
597.2	13.42
597.3	13.41
597.4	13.41
597.5	13.4
597.6	13.39
597.7	13.36
597.8	13.34
597.9	13.33
598	13.33
598.1	13.34
598.2	13.34
598.3	13.33
598.4	13.31
598.5	13.3
598.6	13.3
598.7	13.31
598.8	13.32
598.9	13.33
599	13.32
599.1	13.32
599.2	13.31
599.3	13.31
599.4	13.32
599.5	13.33
599.6	13.33
599.7	13.34
599.8	13.34
599.9	13.34
600	13.32
600.1	13.28
600.2	13.26
600.3	13.26
600.4	13.27
600.5	13.28
600.6	13.28
600.7	13.27
600.8	13.27
600.9	13.26
601	13.27
601.1	13.27
601.2	13.28
601.3	13.27
601.4	13.24
601.5	13.21
601.6	13.2
601.7	13.19
601.8	13.19
601.9	13.19
602	13.19
602.1	13.2
602.2	13.21
602.3	13.21
602.4	13.2
602.5	13.2
602.6	13.2
602.7	13.19
602.8	13.17
602.9	13.16
603	13.16
603.1	13.15
603.2	13.15
603.3	13.15
603.4	13.14
603.5	13.12
603.6	13.12
603.7	13.12
603.8	13.13
603.9	13.14
604	13.14
604.1	13.13
604.2	13.12
604.3	13.12
604.4	13.1
604.5	13.08
604.6	13.07
604.7	13.06
604.8	13.05
604.9	13.04
605	13.03
605.1	13
605.2	12.98
605.3	12.97
605.4	12.98
605.5	12.98
605.6	12.99
605.7	13
605.8	13.02
605.9	13.03
606	13.02
606.1	12.99
606.2	12.95
606.3	12.94
606.4	12.95
606.5	12.97
606.6	12.97
606.7	12.96
606.8	12.94
606.9	12.92
607	12.91
607.1	12.9
607.2	12.9
607.3	12.89
607.4	12.87
607.5	12.85
607.6	12.83
607.7	12.83
607.8	12.83
607.9	12.84
608	12.84
608.1	12.84
608.2	12.85
608.3	12.84
608.4	12.83
608.5	12.82
608.6	12.8
608.7	12.79
608.8	12.76
608.9	12.73
609	12.71
609.1	12.7
609.2	12.69
609.3	12.69
609.4	12.69
609.5	12.69
609.6	12.69
609.7	12.68
609.8	12.68
609.9	12.67
610	12.67
610.1	12.66
610.2	12.65
610.3	12.65
610.4	12.64
610.5	12.63
610.6	12.61
610.7	12.6
610.8	12.57
610.9	12.53
611	12.52
611.1	12.52
611.2	12.53
611.3	12.53
611.4	12.53
611.5	12.51
611.6	12.5
611.7	12.49
611.8	12.48
611.9	12.47
612	12.46
612.1	12.46
612.2	12.45
612.3	12.45
612.4	12.45
612.5	12.45
612.6	12.45
612.7	12.45
612.8	12.44
612.9	12.43
613	12.42
613.1	12.4
613.2	12.38
613.3	12.37
613.4	12.37
613.5	12.37
613.6	12.38
613.7	12.38
613.8	12.35
613.9	12.32
614	12.31
614.1	12.31
614.2	12.33
614.3	12.34
614.4	12.33
614.5	12.31
614.6	12.28
614.7	12.27
614.8	12.25
614.9	12.24
615	12.23
615.1	12.24
615.2	12.25
615.3	12.27
615.4	12.27
615.5	12.26
615.6	12.25
615.7	12.24
615.8	12.22
615.9	12.2
616	12.18
616.1	12.17
616.2	12.16
616.3	12.15
616.4	12.15
616.5	12.16
616.6	12.17
616.7	12.17
616.8	12.16
616.9	12.14
617	12.13
617.1	12.12
617.2	12.09
617.3	12.07
617.4	12.07
617.5	12.07
617.6	12.06
617.7	12.06
617.8	12.05
617.9	12.04
618	12.03
618.1	12.04
618.2	12.05
618.3	12.06
618.4	12.06
618.5	12.05
618.6	12.03
618.7	12.02
618.8	12
618.9	11.98
619	11.97
619.1	11.96
619.2	11.96
619.3	11.96
619.4	11.96
619.5	11.95
619.6	11.94
619.7	11.94
619.8	11.93
619.9	11.92
620	11.91
620.1	11.91
620.2	11.89
620.3	11.88
620.4	11.88
620.5	11.9
620.6	11.92
620.7	11.93
620.8	11.91
620.9	11.88
621	11.86
621.1	11.85
621.2	11.84
621.3	11.84
621.4	11.83
621.5	11.83
621.6	11.83
621.7	11.82
621.8	11.82
621.9	11.82
622	11.82
622.1	11.82
622.2	11.83
622.3	11.84
622.4	11.84
622.5	11.85
622.6	11.85
622.7	11.85
622.8	11.83
622.9	11.8
623	11.78
623.1	11.78
623.2	11.8
623.3	11.82
623.4	11.83
623.5	11.82
623.6	11.82
623.7	11.81
623.8	11.81
623.9	11.8
624	11.79
624.1	11.8
624.2	11.8
624.3	11.8
624.4	11.8
624.5	11.79
624.6	11.77
624.7	11.77
624.8	11.76
624.9	11.75
625	11.74
625.1	11.74
625.2	11.73
625.3	11.73
625.4	11.73
625.5	11.74
625.6	11.75
625.7	11.75
625.8	11.74
625.9	11.71
626	11.7
626.1	11.69
626.2	11.69
626.3	11.69
626.4	11.69
626.5	11.72
626.6	11.75
626.7	11.77
626.8	11.76
626.9	11.75
627	11.73
627.1	11.72
627.2	11.71
627.3	11.7
627.4	11.69
627.5	11.69
627.6	11.7
627.7	11.7
627.8	11.71
627.9	11.72
628	11.73
628.1	11.72
628.2	11.7
628.3	11.68
628.4	11.68
628.5	11.69
628.6	11.72
628.7	11.73
628.8	11.72
628.9	11.7
629	11.69
629.1	11.69
629.2	11.69
629.3	11.7
629.4	11.69
629.5	11.67
629.6	11.63
629.7	11.61
629.8	11.64
629.9	11.7
630	11.75
630.1	11.75
630.2	11.73
630.3	11.7
630.4	11.69
630.5	11.69
630.6	11.7
630.7	11.7
630.8	11.69
630.9	11.68
631	11.66
631.1	11.66
631.2	11.66
631.3	11.66
631.4	11.66
631.5	11.67
631.6	11.67
631.7	11.68
631.8	11.68
631.9	11.69
632	11.7
632.1	11.69
632.2	11.66
632.3	11.64
632.4	11.63
632.5	11.61
632.6	11.6
632.7	11.6
632.8	11.61
632.9	11.64
633	11.65
633.1	11.64
633.2	11.6
633.3	11.56
633.4	11.54
633.5	11.55
633.6	11.56
633.7	11.57
633.8	11.58
633.9	11.59
634	11.6
634.1	11.6
634.2	11.58
634.3	11.56
634.4	11.55
634.5	11.53
634.6	11.5
634.7	11.49
634.8	11.49
634.9	11.5
635	11.51
635.1	11.51
635.2	11.5
635.3	11.49
635.4	11.49
635.5	11.49
635.6	11.5
635.7	11.5
635.8	11.5
635.9	11.5
636	11.5
636.1	11.49
636.2	11.46
636.3	11.43
636.4	11.41
636.5	11.38
636.6	11.35
636.7	11.34
636.8	11.34
636.9	11.36
637	11.37
637.1	11.37
637.2	11.36
637.3	11.35
637.4	11.35
637.5	11.36
637.6	11.37
637.7	11.37
637.8	11.36
637.9	11.33
638	11.32
638.1	11.3
638.2	11.28
638.3	11.26
638.4	11.24
638.5	11.22
638.6	11.2
638.7	11.19
638.8	11.18
638.9	11.17
639	11.17
639.1	11.16
639.2	11.16
639.3	11.16
639.4	11.17
639.5	11.17
639.6	11.16
639.7	11.16
639.8	11.14
639.9	11.1
640	11.08
640.1	11.06
640.2	11.05
640.3	11.04
640.4	11.04
640.5	11.05
640.6	11.06
640.7	11.06
640.8	11.05
640.9	11.04
641	11.03
641.1	11.01
641.2	10.97
641.3	10.95
641.4	10.93
641.5	10.9
641.6	10.88
641.7	10.88
641.8	10.9
641.9	10.92
642	10.93
642.1	10.93
642.2	10.93
642.3	10.92
642.4	10.91
642.5	10.88
642.6	10.86
642.7	10.84
642.8	10.81
642.9	10.77
643	10.75
643.1	10.74
643.2	10.73
643.3	10.73
643.4	10.73
643.5	10.74
643.6	10.74
643.7	10.74
643.8	10.74
643.9	10.73
644	10.72
644.1	10.71
644.2	10.69
644.3	10.67
644.4	10.65
644.5	10.6
644.6	10.56
644.7	10.56
644.8	10.57
644.9	10.59
645	10.6
645.1	10.57
645.2	10.54
645.3	10.51
645.4	10.5
645.5	10.49
645.6	10.48
645.7	10.49
645.8	10.53
645.9	10.56
646	10.57
646.1	10.53
646.2	10.49
646.3	10.45
646.4	10.44
646.5	10.42
646.6	10.4
646.7	10.39
646.8	10.36
646.9	10.34
647	10.33
647.1	10.34
647.2	10.36
647.3	10.36
647.4	10.36
647.5	10.36
647.6	10.35
647.7	10.34
647.8	10.31
647.9	10.28
648	10.28
648.1	10.3
648.2	10.32
648.3	10.33
648.4	10.31
648.5	10.29
648.6	10.27
648.7	10.27
648.8	10.27
648.9	10.27
649	10.27
649.1	10.27
649.2	10.27
649.3	10.26
649.4	10.26
649.5	10.26
649.6	10.25
649.7	10.26
649.8	10.26
649.9	10.26
650	10.24
650.1	10.22
650.2	10.19
650.3	10.18
650.4	10.18
650.5	10.17
650.6	10.18
650.7	10.17
650.8	10.17
650.9	10.17
651	10.17
651.1	10.16
651.2	10.16
651.3	10.16
651.4	10.17
651.5	10.19
651.6	10.2
651.7	10.2
651.8	10.19
651.9	10.18
652	10.17
652.1	10.15
652.2	10.13
652.3	10.11
652.4	10.09
652.5	10.07
652.6	10.06
652.7	10.05
652.8	10.05
652.9	10.05
653	10.05
653.1	10.05
653.2	10.05
653.3	10.06
653.4	10.06
653.5	10.07
653.6	10.08
653.7	10.1
653.8	10.13
653.9	10.14
654	10.14
654.1	10.14
654.2	10.14
654.3	10.15
654.4	10.17
654.5	10.2
654.6	10.23
654.7	10.27
654.8	10.32
654.9	10.38
655	10.46
655.1	10.56
655.2	10.65
655.3	10.7
655.4	10.76
655.5	10.81
655.6	10.85
655.7	10.91
655.8	10.95
655.9	10.97
656	10.98
656.1	10.97
656.2	10.97
656.3	10.96
656.4	10.94
656.5	10.93
656.6	10.91
656.7	10.87
656.8	10.83
656.9	10.79
657	10.75
657.1	10.68
657.2	10.61
657.3	10.48
657.4	10.32
657.5	10.17
657.6	10.07
657.7	9.96
657.8	9.88
657.9	9.87
658	9.93
658.1	10.01
658.2	10.03
658.3	10.01
658.4	9.98
658.5	9.96
658.6	9.95
658.7	9.94
658.8	9.93
658.9	9.93
659	9.94
659.1	9.95
659.2	9.95
659.3	9.94
659.4	9.93
659.5	9.92
659.6	9.91
659.7	9.9
659.8	9.9
659.9	9.89
660	9.89
660.1	9.89
660.2	9.89
660.3	9.9
660.4	9.9
660.5	9.91
660.6	9.91
660.7	9.91
660.8	9.91
660.9	9.91
661	9.92
661.1	9.92
661.2	9.91
661.3	9.89
661.4	9.87
661.5	9.86
661.6	9.85
661.7	9.84
661.8	9.83
661.9	9.82
662	9.82
662.1	9.82
662.2	9.82
662.3	9.82
662.4	9.82
662.5	9.82
662.6	9.8
662.7	9.78
662.8	9.77
662.9	9.77
663	9.77
663.1	9.77
663.2	9.78
663.3	9.78
663.4	9.78
663.5	9.78
663.6	9.75
663.7	9.73
663.8	9.72
663.9	9.72
664	9.72
664.1	9.72
664.2	9.74
664.3	9.77
664.4	9.79
664.5	9.78
664.6	9.75
664.7	9.73
664.8	9.72
664.9	9.7
665	9.68
665.1	9.68
665.2	9.69
665.3	9.72
665.4	9.73
665.5	9.73
665.6	9.73
665.7	9.73
665.8	9.73
665.9	9.73
666	9.72
666.1	9.72
666.2	9.7
666.3	9.68
666.4	9.67
666.5	9.67
666.6	9.67
666.7	9.67
666.8	9.67
666.9	9.67
667	9.67
667.1	9.67
667.2	9.68
667.3	9.68
667.4	9.69
667.5	9.7
667.6	9.71
667.7	9.72
667.8	9.7
667.9	9.67
668	9.65
668.1	9.65
668.2	9.68
668.3	9.71
668.4	9.72
668.5	9.73
668.6	9.74
668.7	9.74
668.8	9.73
668.9	9.71
669	9.7
669.1	9.7
669.2	9.72
669.3	9.74
669.4	9.76
669.5	9.8
669.6	9.85
669.7	9.86
669.8	9.84
669.9	9.82
670	9.8
670.1	9.8
670.2	9.81
670.3	9.81
670.4	9.8
670.5	9.79
670.6	9.77
670.7	9.77
670.8	9.76
670.9	9.76
671	9.76
671.1	9.78
671.2	9.8
671.3	9.82
671.4	9.82
671.5	9.82
671.6	9.82
671.7	9.83
671.8	9.85
671.9	9.87
672	9.88
672.1	9.86
672.2	9.85
672.3	9.85
672.4	9.88
672.5	9.92
672.6	9.94
672.7	9.93
672.8	9.9
672.9	9.88
673	9.87
673.1	9.86
673.2	9.85
673.3	9.85
673.4	9.86
673.5	9.88
673.6	9.89
673.7	9.89
673.8	9.9
673.9	9.91
674	9.93
674.1	9.96
674.2	9.99
674.3	10
674.4	10.01
674.5	10.02
674.6	10.03
674.7	10.07
674.8	10.12
674.9	10.15
675	10.13
675.1	10.1
675.2	10.08
675.3	10.08
675.4	10.11
675.5	10.13
675.6	10.14
675.7	10.13
675.8	10.12
675.9	10.12
676	10.15
676.1	10.18
676.2	10.21
676.3	10.23
676.4	10.25
676.5	10.27
676.6	10.28
676.7	10.29
676.8	10.31
676.9	10.31
677	10.31
677.1	10.31
677.2	10.31
677.3	10.31
677.4	10.31
677.5	10.32
677.6	10.34
677.7	10.39
677.8	10.43
677.9	10.45
678	10.46
678.1	10.47
678.2	10.47
678.3	10.47
678.4	10.46
678.5	10.46
678.6	10.48
678.7	10.51
678.8	10.55
678.9	10.57
679	10.61
679.1	10.64
679.2	10.64
679.3	10.64
679.4	10.63
679.5	10.63
679.6	10.62
679.7	10.61
679.8	10.61
679.9	10.61
680	10.63
680.1	10.64
680.2	10.66
680.3	10.71
680.4	10.75
680.5	10.76
680.6	10.77
680.7	10.76
680.8	10.77
680.9	10.77
681	10.77
681.1	10.78
681.2	10.8
681.3	10.83
681.4	10.85
681.5	10.86
681.6	10.86
681.7	10.86
681.8	10.87
681.9	10.88
682	10.9
682.1	10.91
682.2	10.92
682.3	10.94
682.4	10.95
682.5	10.98
682.6	11.04
682.7	11.08
682.8	11.09
682.9	11.08
683	11.07
683.1	11.07
683.2	11.09
683.3	11.1
683.4	11.11
683.5	11.1
683.6	11.09
683.7	11.08
683.8	11.09
683.9	11.11
684	11.13
684.1	11.16
684.2	11.23
684.3	11.3
684.4	11.32
684.5	11.32
684.6	11.32
684.7	11.32
684.8	11.31
684.9	11.3
685	11.3
685.1	11.32
685.2	11.35
685.3	11.39
685.4	11.4
685.5	11.42
685.6	11.43
685.7	11.44
685.8	11.44
685.9	11.44
686	11.44
686.1	11.44
686.2	11.45
686.3	11.46
686.4	11.49
686.5	11.55
686.6	11.59
686.7	11.61
686.8	11.62
686.9	11.63
687	11.65
687.1	11.7
687.2	11.76
687.3	11.8
687.4	11.82
687.5	11.85
687.6	11.87
687.7	11.89
687.8	11.9
687.9	11.91
688	11.91
688.1	11.9
688.2	11.9
688.3	11.92
688.4	12.02
688.5	12.13
688.6	12.17
688.7	12.16
688.8	12.13
688.9	12.12
689	12.15
689.1	12.21
689.2	12.26
689.3	12.29
689.4	12.32
689.5	12.36
689.6	12.37
689.7	12.4
689.8	12.43
689.9	12.45
690	12.48
690.1	12.51
690.2	12.54
690.3	12.56
690.4	12.58
690.5	12.6
690.6	12.64
690.7	12.72
690.8	12.79
690.9	12.83
691	12.86
691.1	12.9
691.2	12.91
691.3	12.93
691.4	12.94
691.5	12.96
691.6	13
691.7	13.07
691.8	13.12
691.9	13.16
692	13.2
692.1	13.24
692.2	13.27
692.3	13.32
692.4	13.37
692.5	13.41
692.6	13.49
692.7	13.58
692.8	13.65
692.9	13.69
693	13.75
693.1	13.79
693.2	13.81
693.3	13.83
693.4	13.84
693.5	13.88
693.6	13.94
693.7	14.01
693.8	14.07
693.9	14.14
694	14.23
694.1	14.29
694.2	14.35
694.3	14.41
694.4	14.47
694.5	14.53
694.6	14.61
694.7	14.68
694.8	14.74
694.9	14.82
695	14.9
695.1	14.94
695.2	14.99
695.3	15.04
695.4	15.08
695.5	15.12
695.6	15.18
695.7	15.23
695.8	15.3
695.9	15.41
696	15.5
696.1	15.55
696.2	15.61
696.3	15.67
696.4	15.72
696.5	15.79
696.6	15.88
696.7	15.94
696.8	16.02
696.9	16.11
697	16.18
697.1	16.23
697.2	16.29
697.3	16.35
697.4	16.42
697.5	16.53
697.6	16.64
697.7	16.7
697.8	16.76
697.9	16.82
698	16.87
698.1	16.94
698.2	17.04
698.3	17.11
698.4	17.16
698.5	17.21
698.6	17.26
698.7	17.33
698.8	17.44
698.9	17.53
699	17.6
699.1	17.69
699.2	17.78
699.3	17.85
699.4	17.96
699.5	18.08
699.6	18.16
699.7	18.24
699.8	18.32
699.9	18.38
700	18.42
>>>>>End Processed Spectral Data<<<<<