190.72	0.0000E00
191.10	0.0000E00
191.48	0.0000E00
191.86	0.0000E00
192.24	0.0000E00
192.62	-0.0000E00
193.00	0.0000E00
193.38	-0.0000E00
193.76	0.0000E00
194.14	-0.0000E00
194.52	0.0000E00
194.90	-0.0000E00
195.28	-0.0000E00
195.65	0.0000E00
196.03	0.0000E00
196.41	0.0000E00
196.79	0.0000E00
197.17	-0.0000E00
197.55	-0.0000E00
197.93	0.0000E00
198.31	0.0000E00
198.69	0.0000E00
199.07	-0.0000E00
199.45	0.0000E00
199.83	-0.0000E00
200.21	-0.0000E00
200.58	-0.0000E00
200.96	0.0000E00
201.34	-0.0000E00
201.72	-0.0000E00
202.10	0.0000E00
202.48	0.0000E00
202.86	-0.0000E00
203.24	0.0000E00
203.62	-0.0000E00
203.99	-0.0000E00
204.37	-0.0000E00
204.75	-0.0000E00
205.13	0.0000E00
205.51	-0.0000E00
205.89	-0.0000E00
206.27	-0.0000E00
206.64	-0.0000E00
207.02	0.0000E00
207.40	-0.0000E00
207.78	0.0000E00
208.16	0.0000E00
208.54	-0.0000E00
208.92	-0.0000E00
209.29	-0.0000E00
209.67	0.0000E00
210.05	-0.0000E00
210.43	-0.0000E00
210.81	-0.0000E00
211.19	0.0000E00
211.56	-0.0000E00
211.94	-0.0000E00
212.32	-0.0000E00
212.70	-0.0000E00
213.08	-0.0000E00
213.45	-0.0000E00
213.83	0.0000E00
214.21	-0.0000E00
214.59	-0.0000E00
214.97	-0.0000E00
215.34	0.0000E00
215.72	0.0000E00
216.10	0.0000E00
216.48	-0.0000E00
216.86	-0.0000E00
217.23	0.0000E00
217.61	-0.0000E00
217.99	-0.0000E00
218.37	0.0000E00
218.74	0.0000E00
219.12	0.0000E00
219.50	-0.0000E00
219.88	-0.0000E00
220.26	-0.0000E00
220.63	0.0000E00
221.01	-0.0000E00
221.39	-0.0000E00
221.77	-0.0000E00
222.14	0.0000E00
222.52	-0.0000E00
222.90	-0.0000E00
223.27	-0.0000E00
223.65	-0.0000E00
224.03	-0.0000E00
224.41	-0.0000E00
224.78	-0.0000E00
225.16	-0.0000E00
225.54	-0.0000E00
225.92	0.0000E00
226.29	-0.0000E00
226.67	0.0000E00
227.05	0.0000E00
227.42	-0.0000E00
227.80	-0.0000E00
228.18	-0.0000E00
228.55	0.0000E00
228.93	0.0000E00
229.31	-0.0000E00
229.69	-0.0000E00
230.06	-0.0000E00
230.44	-0.0000E00
230.82	-0.0000E00
231.19	0.0000E00
231.57	-0.0000E00
231.95	0.0000E00
232.32	-0.0000E00
232.70	-0.0000E00
233.08	-0.0000E00
233.45	-0.0000E00
233.83	-0.0000E00
234.21	0.0000E00
234.58	0.0000E00
234.96	-0.0000E00
235.33	0.0000E00
235.71	0.0000E00
236.09	-0.0000E00
236.46	0.0000E00
236.84	-0.0000E00
237.22	0.0000E00
237.59	0.0000E00
237.97	-0.0000E00
238.35	0.0000E00
238.72	0.0000E00
239.10	0.0000E00
239.47	-0.0000E00
239.85	0.0000E00
240.23	0.0000E00
240.60	-0.0000E00
240.98	-0.0000E00
241.35	-0.0000E00
241.73	-0.0000E00
242.11	-0.0000E00
242.48	-0.0000E00
242.86	-0.0000E00
243.23	-0.0000E00
243.61	-0.0000E00
243.98	0.0000E00
244.36	0.0000E00
244.74	-0.0000E00
245.11	-0.0000E00
245.49	0.0000E00
245.86	-0.0000E00
246.24	0.0000E00
246.61	-0.0000E00
246.99	0.0000E00
247.37	0.0000E00
247.74	-0.0000E00
248.12	0.0000E00
248.49	0.0000E00
248.87	-0.0000E00
249.24	-0.0000E00
249.62	0.0000E00
249.99	-0.0000E00
250.37	-0.0000E00
250.74	0.0000E00
251.12	0.0000E00
251.49	-0.0000E00
251.87	-0.0000E00
252.24	0.0000E00
252.62	0.0000E00
252.99	0.0000E00
253.37	0.0000E00
253.74	0.0000E00
254.12	0.0000E00
254.49	0.0000E00
254.87	-0.0000E00
255.24	0.0000E00
255.62	-0.0000E00
255.99	-0.0000E00
256.37	-0.0000E00
256.74	-0.0000E00
257.12	-0.0000E00
257.49	-0.0000E00
257.87	-0.0000E00
258.24	-0.0000E00
258.62	-0.0000E00
258.99	-0.0000E00
259.37	-0.0000E00
259.74	-0.0000E00
260.11	-0.0000E00
260.49	0.0000E00
260.86	-0.0000E00
261.24	-0.0000E00
261.61	-0.0000E00
261.99	-0.0000E00
262.36	0.0000E00
262.74	-0.0000E00
263.11	-0.0000E00
263.48	0.0000E00
263.86	-0.0000E00
264.23	-0.0000E00
264.61	0.0000E00
264.98	-0.0000E00
265.35	-0.0000E00
265.73	-0.0000E00
266.10	-0.0000E00
266.48	0.0000E00
266.85	-0.0000E00
267.22	-0.0000E00
267.60	-0.0000E00
267.97	-0.0000E00
268.35	0.0000E00
268.72	0.0000E00
269.09	0.0000E00
269.47	-0.0000E00
269.84	0.0000E00
270.22	0.0000E00
270.59	-0.0000E00
270.96	0.0000E00
271.34	0.0000E00
271.71	-0.0000E00
272.08	-0.0000E00
272.46	-0.0000E00
272.83	-0.0000E00
273.20	-0.0000E00
273.58	0.0000E00
273.95	0.0000E00
274.32	0.0000E00
274.70	-0.0000E00
275.07	-0.0000E00
275.44	0.0000E00
275.82	-0.0000E00
276.19	-0.0000E00
276.56	0.0000E00
276.94	0.0000E00
277.31	0.0000E00
277.68	0.0000E00
278.06	0.0000E00
278.43	0.0000E00
278.80	0.0000E00
279.18	0.0000E00
279.55	-0.0000E00
279.92	-0.0000E00
280.29	-0.0000E00
280.67	-0.0000E00
281.04	-0.0000E00
281.41	0.0000E00
281.79	-0.0000E00
282.16	-0.0000E00
282.53	-0.0000E00
282.90	-0.0000E00
283.28	-0.0000E00
283.65	0.0000E00
284.02	-0.0000E00
284.39	-0.0000E00
284.77	-0.0000E00
285.14	-0.0000E00
285.51	-0.0000E00
285.88	-0.0000E00
286.26	-0.0000E00
286.63	0.0000E00
287.00	0.0000E00
287.37	0.0000E00
287.75	0.0000E00
288.12	0.0000E00
288.49	-0.0000E00
288.86	-0.0000E00
289.23	0.0000E00
289.61	-0.0000E00
289.98	-0.0000E00
290.35	-0.0000E00
290.72	-0.0000E00
291.09	-0.0000E00
291.47	-0.0000E00
291.84	-0.0000E00
292.21	-0.0000E00
292.58	0.0000E00
292.95	-0.0000E00
293.33	0.0000E00
293.70	0.0000E00
294.07	-0.0000E00
294.44	0.0000E00
294.81	0.0000E00
295.18	-0.0000E00
295.56	0.0000E00
295.93	-0.0000E00
296.30	-0.0000E00
296.67	-0.0000E00
297.04	-0.0000E00
297.41	0.0000E00
297.79	-0.0000E00
298.16	0.0000E00
298.53	-0.0000E00
298.90	0.0000E00
299.27	0.0000E00
299.64	0.0000E00
300.01	-1.3661E-02
300.38	-4.8849E-01
300.76	-1.3920E-01
301.13	1.8363E-01
301.50	8.1486E-01
301.87	-8.0878E-01
302.24	2.4719E-01
302.61	-6.8382E-01
302.98	-6.9166E-01
303.35	4.5901E-01
303.72	-8.3680E-01
304.10	5.2799E-01
304.47	3.1725E-01
304.84	3.5097E-01
305.21	-8.0838E-01
305.58	-6.6004E-01
305.95	-1.3548E00
306.32	1.4862E-01
306.69	-1.2516E00
307.06	2.0857E-01
307.43	1.5794E00
307.80	-1.3070E00
308.17	-5.9872E-01
308.54	2.8045E-01
308.91	-5.7081E-01
309.29	-2.2457E-01
309.66	-1.4291E-01
310.03	-5.7996E-01
310.40	-1.2432E00
310.77	1.4217E00
311.14	-1.6368E-01
311.51	4.7076E-01
311.88	1.5638E-01
312.25	1.5395E00
312.62	-4.0995E-01
312.99	-1.1281E00
313.36	1.5289E-01
313.73	2.7307E-01
314.10	-2.4607E-01
314.47	-7.1743E-01
314.84	7.9672E-01
315.21	-2.9500E-01
315.58	-1.1866E-01
315.95	1.5677E00
316.32	6.9802E-01
316.69	5.2953E-02
317.06	2.9250E-01
317.43	1.5590E00
317.80	4.6260E-01
318.17	9.2719E-01
318.54	6.8136E-01
318.91	-6.2070E-01
319.28	2.8554E-01
319.65	5.9982E-01
320.02	9.1956E-02
320.39	-1.3376E00
320.75	1.2488E-01
321.12	6.3502E-02
321.49	1.0037E00
321.86	-4.9229E-01
322.23	-1.1948E-01
322.60	3.9247E-01
322.97	1.3839E00
323.34	-1.2033E-01
323.71	1.2353E-01
324.08	8.6011E-02
324.45	-1.9434E00
324.82	-4.8922E-01
325.19	-3.6606E-01
325.56	4.8767E-01
325.92	2.2598E-01
326.29	4.0910E-01
326.66	-1.4205E-01
327.03	2.7100E-01
327.40	-2.6806E-01
327.77	3.9737E-01
328.14	3.1126E-01
328.51	-6.1873E-01
328.88	-2.7992E-01
329.24	2.4594E-01
329.61	-6.1287E-02
329.98	-9.7340E-01
330.35	2.7186E-01
330.72	4.8821E-01
331.09	-6.9012E-01
331.46	2.3456E-01
331.83	1.3851E00
332.19	-3.1493E-01
332.56	2.0328E-01
332.93	-5.3173E-01
333.30	3.4913E-01
333.67	4.8301E-01
334.04	1.6331E-01
334.40	1.1920E-01
334.77	8.2299E-01
335.14	1.8545E00
335.51	8.4270E-01
335.88	-4.8180E-01
336.25	1.1955E00
336.61	4.7584E-01
336.98	7.7210E-01
337.35	-2.9516E-01
337.72	2.9223E-01
338.09	1.4900E00
338.45	-5.0733E-01
338.82	-7.2913E-02
339.19	-1.2550E-01
339.56	-1.2209E-01
339.93	-9.8152E-16
340.29	-1.5031E-01
340.66	9.9360E-02
341.03	6.1526E-01
341.40	1.9028E-01
341.76	8.2966E-02
342.13	1.7767E-01
342.50	2.6455E-01
342.87	-7.3525E-02
343.23	-1.2956E-01
343.60	-4.3093E-02
343.97	5.0925E-01
344.34	1.5047E-01
344.70	-2.4858E-02
345.07	-1.0274E-01
345.44	2.5108E-01
345.81	4.0264E-01
346.17	1.8690E-01
346.54	2.2593E-01
346.91	3.9232E-01
347.28	2.5229E-01
347.64	3.1730E-01
348.01	-6.5599E-01
348.38	4.2281E-01
348.74	-1.8233E-01
349.11	2.1274E-01
349.48	1.9224E-01
349.85	-4.6019E-01
350.21	6.1340E-01
350.58	5.4366E-02
350.95	7.5749E-01
351.31	1.1155E00
351.68	5.2451E-01
352.05	4.5400E-01
352.41	2.3473E-01
352.78	-1.0610E-01
353.15	1.8632E-01
353.51	8.1811E-01
353.88	5.4807E-01
354.25	3.5305E-01
354.61	-9.7266E-02
354.98	-3.3749E-01
355.35	1.4598E-01
355.71	4.6558E-01
356.08	9.0048E-01
356.45	-4.6929E-02
356.81	7.8612E-01
357.18	5.7820E-01
357.54	6.9025E-02
357.91	2.1338E-01
358.28	-2.6373E-01
358.64	-5.3160E-01
359.01	3.8364E-02
359.38	-3.9696E-01
359.74	-3.1225E-01
360.11	-2.7136E-01
360.47	1.0043E-01
360.84	3.4887E-01
361.21	-1.8121E-01
361.57	-3.1801E-01
361.94	-3.9765E-01
362.30	3.3846E-01
362.67	7.8878E-02
363.03	-2.2649E-01
363.40	1.2601E-01
363.77	-2.5745E-02
364.13	1.9339E-01
364.50	3.8918E-01
364.86	6.2450E-01
365.23	1.3790E00
365.59	2.2723E00
365.96	2.2887E00
366.33	2.3538E00
366.69	1.7925E00
367.06	2.1718E00
367.42	1.1135E00
367.79	1.0948E00
368.15	4.4698E-01
368.52	-3.5842E-02
368.88	3.6401E-01
369.25	-6.2845E-02
369.61	-7.1350E-02
369.98	1.9538E-01
370.34	-1.0553E-01
370.71	1.8531E-01
371.07	1.2864E-01
371.44	3.6379E-01
371.80	-2.2669E-02
372.17	-3.8265E-01
372.53	3.3170E-01
372.90	9.9142E-02
373.26	1.7708E-01
373.63	-4.2752E-01
373.99	1.3629E-01
374.36	2.7568E-01
374.72	1.8446E-01
375.09	-1.8640E-01
375.45	-7.4874E-02
375.82	1.2140E-01
376.18	-2.7685E-02
376.55	-1.3567E-01
376.91	1.4878E-01
377.27	-4.3238E-02
377.64	4.3539E-02
378.00	-1.4586E-01
378.37	-5.2071E-02
378.73	-2.4664E-01
379.10	-1.1461E-01
379.46	2.2158E-01
379.83	1.8664E-01
380.19	1.1722E-01
380.55	3.1253E-01
380.92	6.6285E-02
381.28	2.8739E-01
381.65	8.9807E-02
382.01	-1.1421E-02
382.37	1.2646E-01
382.74	2.3148E-01
383.10	3.3552E-02
383.47	1.3739E-01
383.83	-5.5634E-02
384.19	2.3272E-01
384.56	-2.5539E-01
384.92	1.4931E-01
385.28	2.7717E-01
385.65	-6.7001E-02
386.01	-1.3892E-02
386.38	1.5530E-01
386.74	-4.8538E-02
387.10	1.0145E-01
387.47	-2.2201E-01
387.83	6.0737E-02
388.19	1.5138E-01
388.56	1.6609E-01
388.92	2.5457E-01
389.28	9.8644E-02
389.65	8.8615E-02
390.01	2.2921E-01
390.37	-2.2030E-01
390.74	3.3900E-01
391.10	-1.3307E-01
391.46	-1.8886E-01
391.83	-3.4167E-03
392.19	-9.0654E-02
392.55	-1.6519E-01
392.92	-5.4712E-02
393.28	7.7309E-02
393.64	9.4597E-02
394.00	3.6196E-02
394.37	1.6676E-02
394.73	3.0194E-02
395.09	-4.6574E-02
395.46	-1.8819E-01
395.82	1.6271E-01
396.18	-6.3974E-02
396.54	-2.0186E-01
396.91	-6.9771E-02
397.27	3.9725E-01
397.63	1.7943E-01
397.99	-2.3409E-01
398.36	1.2812E-02
398.72	3.1815E-02
399.08	3.4228E-01
399.44	3.5107E-02
399.81	9.8465E-02
400.17	2.8552E-02
400.53	2.2462E-01
400.89	1.5779E-02
401.26	-5.2663E-01
401.62	9.3301E-03
401.98	-3.3856E-02
402.34	1.8361E-01
402.70	4.2752E-02
403.07	2.3557E-01
403.43	-1.3207E-01
403.79	4.3022E-01
404.15	1.0005E00
404.51	2.0825E00
404.88	4.4934E00
405.24	6.2976E00
405.60	7.1656E00
405.96	7.0838E00
406.32	6.9697E00
406.69	5.6517E00
407.05	3.6959E00
407.41	2.3402E00
407.77	1.8008E00
408.13	9.6463E-01
408.49	7.5418E-01
408.86	5.2540E-01
409.22	5.6408E-01
409.58	6.1357E-01
409.94	6.0214E-01
410.30	5.3447E-02
410.66	4.3978E-01
411.02	2.9775E-01
411.38	1.9166E-01
411.75	3.9105E-01
412.11	1.9373E-01
412.47	4.8629E-01
412.83	2.1440E-01
413.19	4.8684E-01
413.55	5.3593E-01
413.91	4.6581E-01
414.27	3.2238E-01
414.63	5.9742E-01
415.00	4.2866E-01
415.36	7.0765E-01
415.72	5.2585E-01
416.08	4.9833E-01
416.44	7.2397E-01
416.80	5.9602E-01
417.16	4.9827E-01
417.52	4.6987E-01
417.88	5.6262E-01
418.24	8.1616E-01
418.60	7.2112E-01
418.96	8.3555E-01
419.32	8.3921E-01
419.68	9.3030E-01
420.04	9.7076E-01
420.41	8.7067E-01
420.77	8.3985E-01
421.13	8.6269E-01
421.49	1.0222E00
421.85	1.1259E00
422.21	1.1828E00
422.57	1.1163E00
422.93	1.3141E00
423.29	1.2596E00
423.65	1.2493E00
424.01	1.2161E00
424.37	1.3939E00
424.73	1.4717E00
425.09	1.2006E00
425.45	1.6944E00
425.81	1.3067E00
426.17	1.5776E00
426.53	1.7515E00
426.89	1.6221E00
427.25	1.4595E00
427.61	2.0849E00
427.97	1.9671E00
428.33	1.7536E00
428.68	1.9390E00
429.04	1.8914E00
429.40	2.4234E00
429.76	2.7633E00
430.12	2.2121E00
430.48	2.5708E00
430.84	2.1288E00
431.20	2.6742E00
431.56	2.4998E00
431.92	2.6032E00
432.28	2.4012E00
432.64	2.2380E00
433.00	2.4326E00
433.36	2.7717E00
433.72	2.8151E00
434.07	2.9958E00
434.43	3.1149E00
434.79	3.8512E00
435.15	4.6298E00
435.51	7.3533E00
435.87	1.2886E01
436.23	1.9304E01
436.59	2.3113E01
436.95	2.4796E01
437.30	2.4542E01
437.66	2.2801E01
438.02	1.6883E01
438.38	1.2168E01
438.74	9.4154E00
439.10	7.5015E00
439.46	5.5935E00
439.81	4.6799E00
440.17	4.0987E00
440.53	3.7382E00
440.89	3.7708E00
441.25	3.8457E00
441.61	3.7208E00
441.96	3.6484E00
442.32	3.4958E00
442.68	3.4730E00
443.04	3.7305E00
443.40	3.8002E00
443.76	3.7800E00
444.11	3.9833E00
444.47	3.7248E00
444.83	3.7138E00
445.19	3.8125E00
445.55	3.8149E00
445.90	3.7386E00
446.26	3.9031E00
446.62	3.7050E00
446.98	3.6376E00
447.33	3.9885E00
447.69	3.6419E00
448.05	3.4378E00
448.41	3.9330E00
448.76	3.7320E00
449.12	3.9891E00
449.48	3.9971E00
449.84	3.7368E00
450.19	3.8468E00
450.55	3.7121E00
450.91	3.8192E00
451.27	3.4777E00
451.62	3.9434E00
451.98	3.6361E00
452.34	3.4747E00
452.70	3.6165E00
453.05	3.6516E00
453.41	3.3503E00
453.77	3.4171E00
454.12	3.6468E00
454.48	3.3980E00
454.84	3.5571E00
455.19	3.3960E00
455.55	3.5972E00
455.91	3.6443E00
456.27	3.7045E00
456.62	3.6554E00
456.98	3.3846E00
457.34	3.4185E00
457.69	3.4514E00
458.05	3.0122E00
458.41	3.4167E00
458.76	3.3986E00
459.12	3.3568E00
459.48	3.3225E00
459.83	3.5361E00
460.19	3.1663E00
460.54	3.2167E00
460.90	3.3410E00
461.26	3.3554E00
461.61	3.4160E00
461.97	3.1487E00
462.33	3.0068E00
462.68	2.9903E00
463.04	2.9062E00
463.39	3.3220E00
463.75	3.4344E00
464.11	3.0942E00
464.46	3.1393E00
464.82	3.1846E00
465.17	3.0095E00
465.53	2.9085E00
465.89	3.4232E00
466.24	2.8373E00
466.60	3.2125E00
466.95	3.0823E00
467.31	3.1443E00
467.66	2.8582E00
468.02	2.9906E00
468.38	3.0650E00
468.73	2.9553E00
469.09	2.9752E00
469.44	2.8599E00
469.80	2.9781E00
470.15	2.8532E00
470.51	3.1882E00
470.86	2.8632E00
471.22	2.9664E00
471.57	2.8907E00
471.93	3.0673E00
472.28	2.8434E00
472.64	2.9344E00
472.99	2.9243E00
473.35	2.7208E00
473.70	2.8085E00
474.06	2.7113E00
474.41	2.8898E00
474.77	2.8440E00
475.12	2.7896E00
475.48	2.6390E00
475.83	2.6607E00
476.19	2.6745E00
476.54	2.6437E00
476.90	2.6039E00
477.25	2.6979E00
477.61	2.6525E00
477.96	2.8348E00
478.32	2.5737E00
478.67	2.6667E00
479.03	2.5035E00
479.38	2.6986E00
479.73	2.5579E00
480.09	2.7169E00
480.44	2.7312E00
480.80	2.6891E00
481.15	2.8270E00
481.51	2.8560E00
481.86	2.9055E00
482.21	3.0422E00
482.57	3.1449E00
482.92	3.3395E00
483.28	3.5646E00
483.63	3.8140E00
483.98	4.0545E00
484.34	4.5511E00
484.69	5.0941E00
485.05	5.6507E00
485.40	6.3390E00
485.75	6.8077E00
486.11	7.4208E00
486.46	8.0805E00
486.81	8.8508E00
487.17	9.1488E00
487.52	9.6837E00
487.88	9.7752E00
488.23	9.9919E00
488.58	1.0023E01
488.94	1.0352E01
489.29	1.0461E01
489.64	1.0165E01
490.00	9.8699E00
490.35	9.8772E00
490.70	1.0087E01
491.06	9.6512E00
491.41	9.3306E00
491.76	9.0387E00
492.11	8.9116E00
492.47	8.7309E00
492.82	8.4365E00
493.17	8.1845E00
493.53	8.1006E00
493.88	8.0283E00
494.23	7.7369E00
494.59	7.4344E00
494.94	7.3785E00
495.29	6.6913E00
495.64	6.6401E00
496.00	6.5224E00
496.35	6.2022E00
496.70	6.0086E00
497.05	6.0503E00
497.41	5.8661E00
497.76	5.7016E00
498.11	5.6718E00
498.46	5.4136E00
498.82	5.2281E00
499.17	5.2976E00
499.52	4.8154E00
499.87	4.5728E00
500.23	4.3590E00
500.58	3.9573E00
500.93	3.7584E00
501.28	3.6308E00
501.63	3.3012E00
501.99	3.2067E00
502.34	2.9256E00
502.69	2.9055E00
503.04	2.6842E00
503.39	2.5882E00
503.75	2.2945E00
504.10	2.3385E00
504.45	2.2178E00
504.80	2.2226E00
505.15	2.1764E00
505.50	2.1022E00
505.86	2.0164E00
506.21	1.8899E00
506.56	1.9293E00
506.91	1.7469E00
507.26	1.9437E00
507.61	1.8808E00
507.96	1.8273E00
508.32	1.7010E00
508.67	1.7382E00
509.02	1.7885E00
509.37	1.7579E00
509.72	1.5838E00
510.07	1.8410E00
510.42	1.7254E00
510.77	1.7272E00
511.12	1.6795E00
511.48	1.6512E00
511.83	1.5881E00
512.18	1.5251E00
512.53	1.5772E00
512.88	1.5119E00
513.23	1.6570E00
513.58	1.6152E00
513.93	1.5718E00
514.28	1.5969E00
514.63	1.6169E00
514.98	1.6064E00
515.33	1.6290E00
515.68	1.4179E00
516.04	1.4787E00
516.39	1.4623E00
516.74	1.4382E00
517.09	1.4693E00
517.44	1.3472E00
517.79	1.3970E00
518.14	1.4713E00
518.49	1.5254E00
518.84	1.4871E00
519.19	1.3381E00
519.54	1.4683E00
519.89	1.2914E00
520.24	1.3414E00
520.59	1.3780E00
520.94	1.3306E00
521.29	1.3389E00
521.64	1.2825E00
521.99	1.2882E00
522.34	1.1593E00
522.69	1.2165E00
523.04	1.1739E00
523.39	1.0961E00
523.74	1.0928E00
524.09	1.0270E00
524.44	1.0783E00
524.78	1.1232E00
525.13	1.1002E00
525.48	1.2080E00
525.83	1.1744E00
526.18	1.0627E00
526.53	9.8183E-01
526.88	1.0969E00
527.23	1.2368E00
527.58	1.1632E00
527.93	1.1103E00
528.28	1.0254E00
528.63	1.1518E00
528.98	9.8065E-01
529.33	1.0077E00
529.67	9.2841E-01
530.02	1.0008E00
530.37	1.0035E00
530.72	9.6974E-01
531.07	9.0328E-01
531.42	9.6800E-01
531.77	1.0672E00
532.12	9.3336E-01
532.46	1.1097E00
532.81	9.7238E-01
533.16	1.1344E00
533.51	1.2624E00
533.86	1.1851E00
534.21	1.4261E00
534.56	1.4215E00
534.90	1.5244E00
535.25	1.4380E00
535.60	1.5308E00
535.95	1.6492E00
536.30	1.5876E00
536.65	1.5238E00
536.99	1.6747E00
537.34	1.8241E00
537.69	1.9797E00
538.04	2.3541E00
538.39	2.6981E00
538.73	3.3025E00
539.08	3.6582E00
539.43	4.2244E00
539.78	4.9460E00
540.13	5.9526E00
540.47	6.9202E00
540.82	7.8984E00
541.17	9.2412E00
541.52	1.1613E01
541.86	1.4716E01
542.21	1.8753E01
542.56	2.3295E01
542.91	2.7867E01
543.25	3.2834E01
543.60	3.7120E01
543.95	4.0339E01
544.30	4.2474E01
544.64	4.3593E01
544.99	4.4045E01
545.34	4.3982E01
545.68	4.3815E01
546.03	4.4680E01
546.38	4.5571E01
546.73	4.4236E01
547.07	4.2291E01
547.42	3.8932E01
547.77	3.5029E01
548.11	2.9606E01
548.46	2.4374E01
548.81	2.1324E01
549.15	1.8935E01
549.50	1.7714E01
549.85	1.6211E01
550.19	1.4903E01
550.54	1.4019E01
550.89	1.2902E01
551.23	1.2010E01
551.58	1.1099E01
551.93	1.0410E01
552.27	1.0196E01
552.62	9.7154E00
552.97	9.3474E00
553.31	9.0910E00
553.66	8.5841E00
554.00	7.9579E00
554.35	7.2893E00
554.70	6.5284E00
555.04	5.7888E00
555.39	4.9483E00
555.74	4.4905E00
556.08	3.6991E00
556.43	3.2147E00
556.77	2.9719E00
557.12	2.5249E00
557.46	2.2080E00
557.81	1.8967E00
558.16	1.8030E00
558.50	1.6326E00
558.85	1.5353E00
559.19	1.3925E00
559.54	1.2934E00
559.88	1.1524E00
560.23	1.2147E00
560.57	1.0733E00
560.92	1.0308E00
561.27	1.0596E00
561.61	9.3429E-01
561.96	8.9528E-01
562.30	7.2605E-01
562.65	8.1649E-01
562.99	8.0817E-01
563.34	8.0089E-01
563.68	7.9210E-01
564.03	7.8577E-01
564.37	6.7424E-01
564.72	6.6712E-01
565.06	6.8434E-01
565.41	6.3364E-01
565.75	6.6082E-01
566.10	6.5590E-01
566.44	6.4437E-01
566.79	5.5160E-01
567.13	4.9910E-01
567.48	5.2854E-01
567.82	4.9705E-01
568.16	5.6896E-01
568.51	4.6891E-01
568.85	5.2923E-01
569.20	4.7746E-01
569.54	5.6850E-01
569.89	4.6948E-01
570.23	4.5233E-01
570.58	6.4885E-01
570.92	5.3180E-01
571.26	4.5753E-01
571.61	4.7921E-01
571.95	5.6571E-01
572.30	5.1426E-01
572.64	4.5413E-01
572.98	5.8804E-01
573.33	6.7721E-01
573.67	6.1801E-01
574.02	6.5079E-01
574.36	6.9940E-01
574.70	7.6558E-01
575.05	8.6135E-01
575.39	8.5331E-01
575.73	8.4508E-01
576.08	1.0205E00
576.42	1.0443E00
576.77	1.2745E00
577.11	1.9472E00
577.45	2.2400E00
577.80	2.4864E00
578.14	2.7802E00
578.48	2.8074E00
578.83	3.0129E00
579.17	3.1249E00
579.51	3.4027E00
579.86	3.7338E00
580.20	4.4407E00
580.54	5.0508E00
580.88	5.5725E00
581.23	5.5975E00
581.57	5.5755E00
581.91	5.6684E00
582.26	5.8345E00
582.60	5.9227E00
582.94	6.1930E00
583.29	6.5223E00
583.63	7.1272E00
583.97	7.7626E00
584.31	8.0218E00
584.66	8.5219E00
585.00	8.7776E00
585.34	8.6574E00
585.68	8.5563E00
586.03	8.2207E00
586.37	8.0228E00
586.71	7.7843E00
587.05	8.1562E00
587.40	8.6643E00
587.74	9.1900E00
588.08	9.6369E00
588.42	1.0248E01
588.76	1.0327E01
589.11	1.0025E01
589.45	9.6760E00
589.79	9.1787E00
590.13	8.6796E00
590.47	7.9087E00
590.82	7.7249E00
591.16	7.1508E00
591.50	6.8764E00
591.84	6.5052E00
592.18	6.1509E00
592.52	5.9118E00
592.87	5.9513E00
593.21	5.8515E00
593.55	5.9872E00
593.89	6.2627E00
594.23	6.1727E00
594.57	5.8526E00
594.91	5.5854E00
595.26	5.0078E00
595.60	4.4036E00
595.94	4.0369E00
596.28	3.5891E00
596.62	3.2006E00
596.96	3.1484E00
597.30	2.7263E00
597.64	2.3514E00
597.99	2.3240E00
598.33	2.2530E00
598.67	2.3481E00
599.01	2.4042E00
599.35	2.6437E00
599.69	2.9389E00
600.03	2.9376E00
600.37	3.1579E00
600.71	3.2671E00
601.05	3.3481E00
601.39	3.1061E00
601.73	3.0963E00
602.07	2.7559E00
602.41	2.7228E00
602.75	2.3194E00
603.10	2.0909E00
603.44	2.0134E00
603.78	1.9984E00
604.12	1.7917E00
604.46	1.5536E00
604.80	1.5035E00
605.14	1.6364E00
605.48	1.5743E00
605.82	1.4357E00
606.16	1.5569E00
606.50	1.7494E00
606.84	1.5401E00
607.18	1.8851E00
607.52	1.8119E00
607.86	2.0210E00
608.20	2.1313E00
608.54	2.4326E00
608.88	2.5924E00
609.21	2.9751E00
609.55	3.6631E00
609.89	4.5696E00
610.23	5.9382E00
610.57	8.1568E00
610.91	1.2376E01
611.25	1.9308E01
611.59	2.7713E01
611.93	3.4780E01
612.27	4.0614E01
612.61	4.4329E01
612.95	4.5450E01
613.29	4.2452E01
613.63	3.8473E01
613.96	3.4017E01
614.30	3.1097E01
614.64	2.8280E01
614.98	2.5952E01
615.32	2.4197E01
615.66	2.1820E01
616.00	1.9689E01
616.34	1.7556E01
616.68	1.5290E01
617.01	1.3478E01
617.35	1.1776E01
617.69	1.0578E01
618.03	9.6198E00
618.37	8.6128E00
618.71	7.9737E00
619.05	7.9024E00
619.38	7.4926E00
619.72	7.1718E00
620.06	7.0739E00
620.40	7.4366E00
620.74	7.4757E00
621.07	7.6889E00
621.41	7.9321E00
621.75	8.1575E00
622.09	8.2217E00
622.43	7.8271E00
622.76	7.7963E00
623.10	7.3299E00
623.44	7.4392E00
623.78	6.9508E00
624.12	7.1869E00
624.45	6.5861E00
624.79	6.5126E00
625.13	6.1719E00
625.47	5.9147E00
625.80	6.0801E00
626.14	5.6056E00
626.48	5.0659E00
626.82	5.0276E00
627.15	4.6418E00
627.49	4.1454E00
627.83	4.2805E00
628.17	4.1083E00
628.50	4.2181E00
628.84	4.1000E00
629.18	3.7096E00
629.51	3.8195E00
629.85	4.0846E00
630.19	3.9302E00
630.53	4.1360E00
630.86	4.5831E00
631.20	5.4656E00
631.54	5.8503E00
631.87	6.5684E00
632.21	6.4683E00
632.55	6.7104E00
632.88	5.7113E00
633.22	5.2618E00
633.56	4.6230E00
633.89	3.8623E00
634.23	3.3499E00
634.57	2.9548E00
634.90	2.6455E00
635.24	2.1786E00
635.57	1.7249E00
635.91	1.4569E00
636.25	1.2724E00
636.58	1.3169E00
636.92	9.0033E-01
637.26	7.4962E-01
637.59	1.0397E00
637.93	9.6637E-01
638.26	8.0006E-01
638.60	7.5156E-01
638.93	6.8039E-01
639.27	7.4858E-01
639.61	8.0430E-01
639.94	8.0649E-01
640.28	6.4150E-01
640.61	5.2339E-01
640.95	6.6644E-01
641.28	7.9433E-01
641.62	5.7912E-01
641.96	4.8952E-01
642.29	3.8224E-01
642.63	7.3868E-01
642.96	5.3308E-01
643.30	7.9569E-01
643.63	8.7930E-01
643.97	5.6451E-01
644.30	7.2612E-01
644.64	8.0816E-01
644.97	6.6275E-01
645.31	7.8866E-01
645.64	8.6173E-01
645.98	8.7737E-01
646.31	9.5161E-01
646.65	8.1265E-01
646.98	7.8637E-01
647.32	7.9953E-01
647.65	1.1724E00
647.99	7.0229E-01
648.32	7.1129E-01
648.66	8.3304E-01
648.99	7.7927E-01
649.33	7.2368E-01
649.66	8.4212E-01
649.99	9.2241E-01
650.33	1.0632E00
650.66	1.2465E00
651.00	1.5985E00
651.33	1.7111E00
651.67	1.9845E00
652.00	2.1079E00
652.33	2.0933E00
652.67	1.6205E00
653.00	1.6010E00
653.34	1.5632E00
653.67	1.5421E00
654.00	1.3853E00
654.34	1.1326E00
654.67	1.2332E00
655.01	1.1100E00
655.34	1.0320E00
655.67	1.0050E00
656.01	7.8210E-01
656.34	1.0585E00
656.67	9.2955E-01
657.01	7.2964E-01
657.34	7.9185E-01
657.67	7.1804E-01
658.01	5.2669E-01
658.34	5.0785E-01
658.67	7.9859E-01
659.01	4.7205E-01
659.34	5.3197E-01
659.67	5.1526E-01
660.01	5.4983E-01
660.34	6.1767E-01
660.67	5.8137E-01
661.01	4.1889E-01
661.34	3.4524E-01
661.67	4.8255E-01
662.01	3.7783E-01
662.34	5.7055E-01
662.67	8.8842E-01
663.00	7.6804E-01
663.34	1.2267E00
663.67	1.4922E00
664.00	1.2712E00
664.33	1.3175E00
664.67	1.4097E00
665.00	8.7286E-01
665.33	8.4329E-01
665.66	9.6319E-01
666.00	6.1587E-01
666.33	9.0400E-01
666.66	7.7192E-01
666.99	6.1727E-01
667.32	8.9511E-01
667.66	7.5387E-01
667.99	6.9362E-01
668.32	8.6190E-01
668.65	1.0862E00
668.99	7.2200E-01
669.32	5.5418E-01
669.65	8.8445E-01
669.98	9.5748E-01
670.31	9.7677E-01
670.64	7.0100E-01
670.98	6.3899E-01
671.31	7.4264E-01
671.64	5.3061E-01
671.97	6.5771E-01
672.30	6.1991E-01
672.63	6.3107E-01
672.96	6.3627E-01
673.30	5.2674E-01
673.63	4.7633E-01
673.96	5.5843E-01
674.29	5.3673E-01
674.62	6.7006E-01
674.95	8.3397E-01
675.28	4.2851E-01
675.61	6.0667E-01
675.95	6.3919E-01
676.28	4.9040E-01
676.61	4.0312E-01
676.94	5.7527E-01
677.27	4.9642E-01
677.60	6.4677E-01
677.93	1.3350E-01
678.26	3.9602E-02
678.59	4.5854E-01
678.92	4.0769E-01
679.25	3.7881E-01
679.58	6.6452E-01
679.91	4.7480E-01
680.24	6.5418E-01
680.57	7.3247E-01
680.91	7.4546E-01
681.24	6.0830E-01
681.57	8.2092E-01
681.90	7.7615E-01
682.23	1.2394E00
682.56	7.6915E-01
682.89	6.8665E-01
683.22	7.5597E-01
683.55	6.3039E-01
683.88	3.4130E-01
684.21	4.3203E-01
684.54	4.0025E-01
684.87	6.1041E-01
685.20	3.6702E-01
685.53	3.6478E-01
685.86	7.7440E-02
686.18	1.6238E-01
686.51	2.5798E-01
686.84	3.4111E-01
687.17	3.9426E-01
687.50	5.2684E-01
687.83	9.4494E-01
688.16	8.0597E-01
688.49	1.0739E00
688.82	1.2731E00
689.15	8.4936E-01
689.48	9.5267E-01
689.81	8.7854E-01
690.14	7.9635E-01
690.47	9.8927E-01
690.79	4.8268E-01
691.12	5.2808E-01
691.45	4.3882E-01
691.78	6.4372E-01
692.11	1.8246E-02
692.44	3.2969E-01
692.77	5.6302E-01
693.10	4.9169E-01
693.42	2.5628E-01
693.75	4.6728E-01
694.08	7.2601E-01
694.41	9.2220E-01
694.74	7.1744E-01
695.07	9.4073E-01
695.40	6.4541E-01
695.72	2.6034E-01
696.05	6.1882E-01
696.38	4.9670E-01
696.71	7.8084E-01
697.04	3.9983E-01
697.36	5.7714E-01
697.69	3.4805E-01
698.02	3.4555E-01
698.35	8.4202E-01
698.68	3.5554E-01
699.00	4.1236E-01
699.33	9.1595E-02
699.66	6.9878E-01
699.99	1.6063E-01
700.32	3.6242E-01
700.64	3.5219E-01
700.97	1.6234E-02
701.30	1.3459E-01
701.63	1.1465E-01
701.95	5.3910E-01
702.28	2.9289E-01
702.61	2.9442E-01
702.94	8.7367E-02
703.26	2.2590E-01
703.59	6.0445E-01
703.92	5.5559E-01
704.24	3.5441E-01
704.57	4.5266E-01
704.90	5.1771E-01
705.23	4.4649E-01
705.55	2.6014E-01
705.88	4.0627E-01
706.21	9.3163E-01
706.53	1.0821E00
706.86	1.2762E00
707.19	1.1629E00
707.51	1.7857E00
707.84	2.1500E00
708.17	2.3480E00
708.49	2.7755E00
708.82	2.6104E00
709.15	3.1175E00
709.47	3.3135E00
709.80	2.9657E00
710.12	3.1555E00
710.45	3.4291E00
710.78	3.2813E00
711.10	3.1277E00
711.43	2.5866E00
711.76	2.1856E00
712.08	2.0140E00
712.41	1.7477E00
712.73	2.1222E00
713.06	2.7003E00
713.39	2.3162E00
713.71	2.4897E00
714.04	2.2990E00
714.36	2.2057E00
714.69	1.7232E00
715.01	1.4575E00
715.34	1.4084E00
715.67	1.1213E00
715.99	1.2343E00
716.32	7.3433E-01
716.64	8.6056E-01
716.97	6.5368E-01
717.29	1.1875E-01
717.62	7.6339E-02
717.94	-7.6629E-02
718.27	4.3250E-01
718.59	4.1511E-01
718.92	-6.2833E-02
719.24	1.6983E-01
719.57	1.1197E-01
719.89	-1.4641E-01
720.22	-1.4710E-02
720.54	-4.9137E-03
720.87	-7.8868E-02
721.19	1.2389E-01
721.52	8.4527E-02
721.84	-5.9912E-02
722.17	-1.6053E-01
722.49	-2.0609E-01
722.81	2.2181E-01
723.14	-2.7842E-01
723.46	2.5376E-02
723.79	2.2949E-01
724.11	7.1614E-02
724.44	-3.5396E-01
724.76	2.5747E-02
725.09	5.9931E-01
725.41	-2.2260E-01
725.73	1.0900E-01
726.06	3.1203E-02
726.38	-4.1710E-02
726.71	3.6578E-02
727.03	-2.0966E-01
727.35	-2.1020E-02
727.68	-3.2099E-01
728.00	2.7986E-01
728.32	1.5363E-01
728.65	-4.9410E-01
728.97	4.4749E-01
729.30	6.4076E-02
729.62	1.9283E-01
729.94	-3.7653E-02
730.27	2.4812E-01
730.59	-1.0794E-02
730.91	1.6223E-02
731.24	-3.7932E-02
731.56	-2.1187E-01
731.88	-1.9053E-01
732.21	-3.8144E-01
732.53	-2.7279E-01
732.85	2.3012E-01
733.17	-6.0500E-02
733.50	-8.2833E-02
733.82	-5.5869E-01
734.14	-1.7199E-01
734.47	3.7387E-01
734.79	3.8647E-01
735.11	2.3587E-01
735.43	5.6239E-02
735.76	2.0863E-01
736.08	2.8289E-02
736.40	2.0989E-01
736.72	-1.0204E-01
737.05	2.1623E-01
737.37	3.1962E-01
737.69	2.9800E-01
738.01	2.0684E-01
738.34	3.1109E-01
738.66	-1.0980E-01
738.98	1.9764E-01
739.30	-4.6602E-01
739.63	2.3381E-02
739.95	7.6213E-01
740.27	2.9395E-01
740.59	4.1339E-01
740.91	2.0752E-01
741.24	4.8699E-01
741.56	-6.1965E-01
741.88	-9.5750E-02
742.20	-2.8836E-01
742.52	-1.2672E-01
742.84	3.0860E-01
743.17	-3.0316E-02
743.49	1.4606E-01
743.81	1.2838E-01
744.13	-6.7297E-02
744.45	9.8103E-02
744.77	3.5081E-01
745.09	1.7315E-01
745.41	5.5976E-02
745.74	6.2484E-02
746.06	1.8789E-02
746.38	-7.5686E-02
746.70	1.5834E-01
747.02	5.2770E-01
747.34	3.8924E-01
747.66	3.8441E-01
747.98	6.0359E-01
748.30	-1.5516E-01
748.62	-5.8379E-02
748.95	7.2284E-01
749.27	-2.5517E-01
749.59	2.1690E-01
749.91	2.4445E-01
750.23	-5.9903E-02
750.55	-2.8115E-01
750.87	7.7255E-01
751.19	3.8509E-01
751.51	4.0111E-01
751.83	1.4361E-01
752.15	3.4396E-02
752.47	7.6710E-01
752.79	-5.5506E-02
753.11	1.0485E-01
753.43	-7.0480E-02
753.75	-1.4158E-02
754.07	7.2583E-01
754.39	-6.0641E-01
754.71	9.3214E-02
755.03	8.6417E-02
755.35	-3.5419E-01
755.67	-4.5693E-01
755.99	7.2773E-03
756.31	-6.3786E-01
756.63	-5.3040E-01
756.95	-3.7019E-02
757.27	-1.7131E-01
757.59	-3.9708E-01
757.91	-4.4440E-01
758.23	1.2909E-01
758.54	2.5178E-01
758.86	-6.1576E-02
759.18	1.5520E-02
759.50	-3.1993E-01
759.82	2.8326E-01
760.14	-7.9283E-02
760.46	-2.7174E-01
760.78	4.9119E-01
761.10	3.2335E-02
761.42	-3.5774E-01
761.73	4.1718E-01
762.05	-9.0330E-02
762.37	5.1875E-01
762.69	-2.2281E-01
763.01	4.1388E-02
763.33	2.6701E-01
763.65	1.4228E-01
763.97	4.8760E-01
764.28	-4.2078E-02
764.60	1.1931E00
764.92	1.1132E00
765.24	9.1374E-01
765.56	1.3334E00
765.88	1.4849E00
766.19	2.4114E-01
766.51	6.4979E-01
766.83	-3.1293E-01
767.15	2.0054E-01
767.47	-6.3709E-01
767.78	2.9776E-01
768.10	1.9329E-01
768.42	-3.0785E-01
768.74	-7.7657E-01
769.05	-8.0474E-01
769.37	-2.3920E-01
769.69	-4.1680E-01
770.01	-4.4414E-01
770.32	2.7601E-01
770.64	-2.6739E-01
770.96	-2.8533E-01
771.28	-8.9308E-02
771.59	3.3050E-01
771.91	8.3206E-01
772.23	6.2660E-01
772.55	-3.3982E-01
772.86	6.2762E-02
773.18	9.8866E-02
773.50	-3.0606E-01
773.81	7.5166E-01
774.13	-3.3600E-01
774.45	1.8239E-01
774.76	5.9485E-01
775.08	-1.9279E-01
775.40	8.7332E-01
775.71	-2.7668E-01
776.03	-4.1499E-01
776.35	-5.1783E-01
776.66	3.4275E-01
776.98	4.3716E-01
777.30	2.4266E-01
777.61	1.0306E-01
777.93	-6.8544E-01
778.25	2.8199E-02
778.56	6.1249E-01
778.88	1.3229E-01
779.20	-1.7027E-01
779.51	-1.1262E00
779.83	-1.9974E-01
780.14	-1.2496E00
780.46	-2.3032E-01
780.78	-1.3479E-01
781.09	-1.1030E00
781.41	-6.5139E-01
781.72	8.6838E-01
782.04	-4.5074E-01
782.35	-8.3730E-01
782.67	2.9673E-01
782.99	-6.9624E-02
783.30	2.5945E-01
783.62	5.9021E-01
783.93	6.0334E-02
784.25	-2.1209E-01
784.56	-5.2670E-01
784.88	2.9467E-01
785.19	-4.8013E-01
785.51	-2.0559E-01
785.82	8.2682E-01
786.14	-6.2434E-02
786.45	2.0869E-02
786.77	-1.8881E-01
787.08	6.3420E-01
787.40	7.2318E-01
787.71	4.8095E-01
788.03	-3.9772E-01
788.34	-5.2980E-01
788.66	-3.4757E-01
788.97	1.5304E-01
789.29	-1.2088E00
789.60	-3.3088E-02
789.92	-7.8482E-01
790.23	-8.5666E-01
790.54	-2.6838E-01
790.86	-2.3579E-01
791.17	-1.8052E-01
791.49	6.1145E-01
791.80	-4.9037E-01
792.12	-1.2660E-01
792.43	-2.0804E-01
792.74	6.8442E-01
793.06	-2.1018E-01
793.37	-2.4658E-01
793.69	1.4160E-01
794.00	-7.3454E-01
794.31	1.0465E00
794.63	2.5161E-01
794.94	9.4256E-01
795.25	1.4637E-01
795.57	-5.0406E-01
795.88	-1.1169E-01
796.20	1.8717E-01
796.51	-1.8194E00
796.82	-5.4187E-01
797.14	2.3985E-01
797.45	-1.8985E-01
797.76	6.2334E-01
798.08	-4.4642E-01
798.39	2.4376E-01
798.70	-2.0628E-01
799.01	6.0911E-01
799.33	3.0069E-01
799.64	6.1872E-01
799.95	0.0000E00
800.27	7.9894E-01
800.58	4.4141E-01
800.89	1.2104E-01
801.20	1.1798E00
801.52	9.5419E-01
801.83	-6.4390E-01
802.14	-4.9597E-01
802.46	-6.1020E-01
802.77	5.1641E-01
803.08	1.3105E00
803.39	1.4137E00
803.70	8.6536E-01
804.02	1.8831E00
804.33	6.8963E-01
804.64	2.3061E-01
804.95	-4.3430E-01
805.27	7.5573E-01
805.58	-7.3176E-02
805.89	4.4189E-02
806.20	6.2001E-01
806.51	3.8444E-01
806.83	9.9320E-01
807.14	-2.1594E00
807.45	-9.1097E-01
807.76	-1.9468E-01
808.07	-1.3538E00
808.38	7.7213E-01
808.70	-8.3707E-01
809.01	7.6508E-01
809.32	-7.5358E-01
809.63	3.7134E-01
809.94	-1.1657E00
810.25	-4.9937E-01
810.56	5.3374E-01
810.87	8.0520E-01
811.19	9.2215E-01
811.50	9.2732E-01
811.81	8.6533E-01
812.12	-9.6897E-02
812.43	8.1321E-01
812.74	1.3419E00
813.05	6.5822E-01
813.36	1.1899E00
813.67	4.4863E-01
813.98	1.1044E00
814.29	-1.9138E00
814.61	8.2680E-01
814.92	6.9468E-01
815.23	1.0911E00
815.54	-5.9998E-01
815.85	4.4769E-01
816.16	-5.8952E-01
816.47	1.9192E-01
816.78	8.9342E-01
817.09	1.1808E00
817.40	5.8478E-01
817.71	-4.9885E-01
818.02	-2.5096E-01
818.33	-8.0859E-01
818.64	-6.6784E-01
818.95	-3.2700E-01
819.26	-5.0898E-01
819.57	3.6466E-01
819.88	-7.3267E-02
820.19	1.6048E00
820.50	1.0958E00
820.81	2.6103E-01
821.12	7.1147E-01
821.43	-9.9959E-01
821.73	5.6984E-02
822.04	-4.7641E-01
822.35	-4.0209E-01
822.66	1.2686E00
822.97	2.3179E-01
823.28	-5.8330E-02
823.59	1.3689E-01
823.90	-3.5361E-01
824.21	-8.1226E-01
824.52	-1.1909E-01
824.83	-2.0122E00
825.14	-3.5932E00
825.44	-7.4380E-01
825.75	-2.0191E-02
826.06	6.0895E-01
826.37	2.8510E-01
826.68	-7.9857E-01
826.99	2.0596E-01
827.30	-9.1013E-01
827.60	-1.4139E00
827.91	1.5478E00
828.22	-2.3972E00
828.53	1.2667E00
828.84	6.5744E-01
829.15	4.2631E-02
829.45	-1.9263E00
829.76	4.7438E-01
830.07	-2.2325E00
830.38	5.0030E-01
830.69	4.3686E-01
830.99	-1.6047E00
831.30	1.2351E00
831.61	-1.2421E00
831.92	8.4734E-01
832.23	8.3064E-01
832.53	5.1902E-01
832.84	1.8638E00
833.15	2.5060E-01
833.46	6.6640E-01
833.76	8.0950E-01
834.07	-1.7399E00
834.38	-1.6049E00
834.69	-2.2971E00
834.99	0.0000E00
835.30	7.3681E-01
835.61	-9.5757E-01
835.91	-1.0829E00
836.22	-8.7089E-01
836.53	-1.6816E00
836.84	-9.5450E-01
837.14	-1.9497E00
837.45	-1.6595E00
837.76	0.0000E00
838.06	1.2950E00
838.37	4.7657E-01
838.68	-2.0849E00
838.98	2.0270E-01
839.29	-1.2443E00
839.60	-2.8058E-01
839.90	1.7137E00
840.21	4.3815E-01
840.51	8.0358E-01
840.82	-1.7506E00
841.13	1.4086E00
841.43	-8.1218E-01
841.74	5.2806E-02
842.05	0.0000E00
842.35	1.7897E00
842.66	-2.6813E-02
842.96	2.0242E00
843.27	1.3591E-01
843.58	-9.0295E-01
843.88	9.8780E-01
844.19	-7.7364E-01
844.49	6.6695E-01
844.80	2.5185E00
845.10	1.4954E00
845.41	2.8474E-01
845.71	-5.7305E-01
846.02	-1.1548E-01
846.33	9.3104E-01
846.63	1.2017E00
846.94	1.5326E00
847.24	-8.5782E-01
847.55	-1.8492E00
847.85	3.7889E00
848.16	1.6371E00
848.46	1.3383E00
848.77	-1.0679E00
849.07	-5.8500E-01
849.38	-9.6266E-01
849.68	-2.2394E00
849.99	5.9335E-01
850.29	1.8500E00
850.59	-7.5318E-01
850.90	-4.7525E-01
851.20	2.8680E-01
851.51	9.2519E-01
851.81	-1.9561E00
852.12	-2.1307E00
852.42	-3.2460E00
852.73	-5.6065E-01
853.03	-4.9680E-01
853.33	-5.0233E-15
853.64	-1.9143E00
853.94	5.4160E-01
854.25	-3.1323E00
854.55	-9.6018E-01
854.85	4.4649E-01
855.16	-3.2408E00
855.46	-1.9103E00
855.77	-6.6225E-01
856.07	6.9894E-01
856.37	1.7631E-01
856.68	2.0610E00
856.98	-2.1488E00
857.28	-4.3669E00
857.59	-4.1357E00
857.89	-6.5776E-01
858.19	-3.6911E-02
858.50	1.7340E00
858.80	-4.8131E-01
859.10	2.2298E-01
859.41	-1.3827E00
859.71	-2.2515E-01
860.01	-8.6948E-01
860.32	-2.0478E00
860.62	3.2151E00
860.92	1.3886E00
861.23	3.8843E-01
861.53	1.2902E00
861.83	1.6136E00
862.13	2.9332E00
862.44	-1.5213E00
862.74	-3.2284E-01
863.04	-7.2844E00
863.34	-2.3391E00
863.65	-2.4784E00
863.95	-3.7461E-01
864.25	-2.0514E00
864.55	-4.2229E-02
864.86	-1.9595E00
865.16	-5.0986E00
865.46	2.9348E00
865.76	3.3799E00
866.06	-3.6302E00
866.37	-2.7693E00
866.67	2.5161E00
866.97	-8.4425E-01
867.27	7.1528E-01
867.57	7.1852E-01
867.87	-5.5468E00
868.18	-6.3946E-01
868.48	2.2603E00
868.78	1.3469E00
869.08	-1.4945E00
869.38	2.9025E00
869.68	-4.7191E-01
869.98	4.2337E00
870.29	-2.9215E00
870.59	-9.1403E-01
870.89	2.7485E00
871.19	-4.3825E-01
871.49	-3.9356E-01
871.79	-5.8100E00
872.09	-4.0476E00
872.39	3.9774E00
872.69	-5.6416E00
873.00	2.9371E00
873.30	1.0376E-01
873.60	3.6614E-01
873.90	6.8466E-01
874.20	1.6454E00
874.50	-2.4624E00
874.80	6.4684E-01
875.10	-2.0648E00
875.40	-1.4189E00
875.70	6.6002E-01
876.00	6.0937E-01
876.30	1.2763E00
876.60	-9.5120E-01
876.90	2.5422E00
877.20	2.1674E00
877.50	1.9603E00
877.80	2.3352E-01
878.10	2.9479E-01
878.40	1.6143E00
878.70	-2.1731E00
879.00	-9.7289E-01
879.30	5.6232E00
879.60	2.8916E00
879.90	-9.3254E-15
880.20	-4.1608E00
880.50	-2.6277E00
880.80	-1.0650E00
881.10	8.1926E-01
881.40	1.5259E00
881.70	1.5330E00
881.99	1.0286E00
882.29	-1.2977E00
882.59	-2.4765E00
882.89	3.6297E00
883.19	2.0053E00
883.49	-4.0437E00
883.79	2.7235E00
884.09	4.7312E00
884.39	-4.0566E00
884.69	3.8768E00
884.98	-2.0791E00
885.28	6.9261E-01
885.58	4.1668E00
885.88	2.8599E00
886.18	-2.8181E-01
886.48	8.5516E-01
886.77	3.5799E-01
887.07	-1.5159E00
887.37	-2.5408E00
887.67	-7.3220E-02
887.97	-1.9957E00
888.27	-4.9627E00
888.56	1.6350E00
888.86	-2.4054E00
889.16	-1.0076E01
889.46	-2.9800E00
889.76	-5.8614E00
890.05	1.5551E00
890.35	-4.7062E-01
890.65	6.6314E00
890.95	-5.5632E00
891.24	-2.9650E00
891.54	-6.2972E00
891.84	5.0321E00
892.14	-3.9320E00
892.43	1.0825E01
892.73	1.0825E01
